sample,raw,filtered
0,2434.0,-116.0
1,2426.0,-112.0
2,2429.0,-107.0
3,2422.0,-103.0
4,2429.0,-98.0
5,2431.0,-92.0
6,2432.0,-86.0
7,2429.0,-80.0
8,2426.0,-73.0
9,2426.0,-67.0
10,2429.0,-60.0
11,2430.0,-54.0
12,2427.0,-48.0
13,2430.0,-43.0
14,2425.0,-28.0
15,2432.0,-24.0
16,2431.0,-21.0
17,2431.0,-17.0
18,2425.0,-13.0
19,2431.0,-8.0
20,2432.0,-3.0
21,2433.0,1.0
22,2432.0,6.0
23,2430.0,11.0
24,2429.0,16.0
25,2427.0,20.0
26,2430.0,25.0
27,2434.0,29.0
28,2431.0,33.0
29,2432.0,37.0
30,2427.0,41.0
31,2431.0,45.0
32,2434.0,49.0
33,2431.0,53.0
34,2436.0,57.0
35,2421.0,61.0
36,2430.0,65.0
37,2430.0,68.0
38,2428.0,71.0
39,2422.0,73.0
40,2428.0,75.0
41,2422.0,77.0
42,2424.0,79.0
43,2422.0,81.0
44,2426.0,83.0
45,2431.0,85.0
46,2427.0,88.0
47,2425.0,90.0
48,2425.0,92.0
49,2416.0,96.0
50,2418.0,96.0
51,2426.0,96.0
52,2427.0,97.0
53,2423.0,97.0
54,2251.0,98.0
55,2034.0,99.0
56,2384.0,101.0
57,1564.0,116.0
58,1924.0,113.0
59,2174.0,102.0
60,1992.0,84.0
61,1521.0,62.0
62,1315.0,35.0
63,1719.0,5.0
64,2000.0,-23.0
65,1870.0,-44.0
66,1476.0,-49.0
67,1269.0,-45.0
68,1697.0,-43.0
69,1946.0,-49.0
70,1855.0,-62.0
71,1542.0,-79.0
72,1272.0,-106.0
73,1600.0,-145.0
74,1996.0,-194.0
75,1903.0,-239.0
76,1590.0,-269.0
77,1386.0,-282.0
78,1734.0,-285.0
79,2182.0,-281.0
80,2250.0,-263.0
81,1538.0,253.0
82,1969.0,306.0
83,1923.0,377.0
84,1586.0,466.0
85,1280.0,554.0
86,1548.0,607.0
87,2035.0,593.0
88,2064.0,500.0
89,1763.0,337.0
90,1425.0,126.0
91,1694.0,-101.0
92,2173.0,-305.0
93,2192.0,-438.0
94,1961.0,-472.0
95,1862.0,-286.0
96,2270.0,-136.0
97,2310.0,12.0
98,2064.0,146.0
99,1704.0,255.0
100,1936.0,334.0
101,2398.0,382.0
102,2405.0,411.0
103,2140.0,431.0
104,1760.0,446.0
105,1990.0,448.0
106,2420.0,435.0
107,2424.0,416.0
108,2223.0,401.0
109,1861.0,394.0
110,2080.0,387.0
111,2421.0,373.0
112,2427.0,355.0
113,2251.0,340.0
114,1852.0,329.0
115,1939.0,314.0
116,2335.0,292.0
117,2404.0,265.0
118,1725.0,224.0
119,1855.0,205.0
120,2287.0,180.0
121,2349.0,154.0
122,2041.0,137.0
123,1533.0,129.0
124,1607.0,122.0
125,2068.0,107.0
126,2150.0,85.0
127,1908.0,62.0
128,1382.0,40.0
129,1365.0,13.0
130,1030.0,-119.0
131,1126.0,-137.0
132,1615.0,-159.0
133,1730.0,-186.0
134,1462.0,-210.0
135,901.0,-230.0
136,865.0,-251.0
137,1293.0,-277.0
138,1440.0,-307.0
139,1160.0,-329.0
140,708.0,-344.0
141,725.0,-362.0
142,1188.0,-392.0
143,1322.0,-431.0
144,1088.0,-464.0
145,705.0,-481.0
146,726.0,-483.0
147,1216.0,-478.0
148,1412.0,-466.0
149,1207.0,-445.0
150,761.0,-418.0
151,1409.0,-400.0
152,1234.0,-403.0
153,737.0,-392.0
154,586.0,-372.0
155,1009.0,-349.0
156,1252.0,-322.0
157,1057.0,-284.0
158,608.0,-230.0
159,507.0,-169.0
160,914.0,-111.0
161,1173.0,-58.0
162,1002.0,-7.0
163,470.0,45.0
164,315.0,91.0
165,829.0,119.0
166,1128.0,129.0
167,944.0,129.0
168,481.0,125.0
169,244.0,114.0
170,645.0,88.0
171,976.0,52.0
172,848.0,18.0
173,382.0,-2.0
174,162.0,-12.0
175,625.0,-22.0
176,965.0,-34.0
177,833.0,-41.0
178,402.0,-37.0
179,221.0,-26.0
180,530.0,-17.0
181,734.0,-11.0
182,703.0,-2.0
183,392.0,13.0
184,266.0,30.0
185,656.0,35.0
186,962.0,28.0
187,843.0,20.0
188,495.0,21.0
189,292.0,33.0
190,679.0,49.0
191,1577.0,264.0
192,1263.0,297.0
193,1595.0,320.0
194,2067.0,333.0
195,2417.0,345.0
196,2298.0,367.0
197,2023.0,397.0
198,2240.0,427.0
199,2427.0,457.0
200,2127.0,493.0
201,1560.0,544.0
202,1056.0,608.0
203,1309.0,672.0
204,1764.0,722.0
205,1845.0,756.0
206,1368.0,796.0
207,1727.0,810.0
208,2152.0,828.0
209,2102.0,863.0
210,1707.0,915.0
211,1412.0,962.0
212,1642.0,966.0
213,2089.0,891.0
214,878.0,-186.0
215,1076.0,-138.0
216,1113.0,-167.0
217,715.0,-206.0
218,846.0,-256.0
219,1255.0,-318.0
220,1211.0,-382.0
221,910.0,-436.0
222,384.0,-480.0
223,542.0,-521.0
224,1124.0,-567.0
225,1202.0,-613.0
226,876.0,-647.0
227,384.0,-665.0
228,328.0,-674.0
229,773.0,-681.0
230,879.0,-684.0
231,670.0,-677.0
232,172.0,-664.0
233,119.0,-654.0
234,566.0,-659.0
235,640.0,-671.0
236,363.0,-677.0
237,-16.0,-669.0
238,89.0,-561.0
239,-19.0,-521.0
240,-23.0,-491.0
241,-21.0,-480.0
242,-16.0,-484.0
243,-25.0,-490.0
244,-23.0,-489.0
245,-16.0,-485.0
246,-22.0,-483.0
247,-27.0,-484.0
248,-24.0,-481.0
249,-26.0,-470.0
250,-19.0,-454.0
251,-23.0,-436.0
252,-20.0,-415.0
253,-21.0,-389.0
254,-22.0,-361.0
255,-25.0,-335.0
256,-24.0,-312.0
257,-25.0,-289.0
258,-14.0,-261.0
259,-27.0,-222.0
260,-25.0,-173.0
261,-25.0,-116.0
262,-25.0,-56.0
263,-26.0,2.0
264,-21.0,57.0
265,-21.0,106.0
266,535.0,149.0
267,1127.0,186.0
268,989.0,218.0
269,747.0,245.0
270,706.0,267.0
271,1036.0,285.0
272,1335.0,299.0
273,1348.0,311.0
274,976.0,319.0
275,671.0,320.0
276,1077.0,309.0
277,1190.0,295.0
278,927.0,296.0
279,494.0,332.0
280,302.0,417.0
281,798.0,549.0
282,1149.0,721.0
283,858.0,915.0
284,168.0,1109.0
285,-25.0,1271.0
286,286.0,1378.0
287,745.0,1421.0
288,780.0,1407.0
289,264.0,1348.0
290,-20.0,1242.0
291,168.0,1087.0
292,550.0,892.0
293,464.0,678.0
294,-22.0,472.0
295,-27.0,285.0
296,-23.0,119.0
297,1638.0,76.0
298,1119.0,79.0
299,484.0,80.0
300,560.0,76.0
301,922.0,68.0
302,1016.0,57.0
303,857.0,50.0
304,691.0,57.0
305,1055.0,87.0
306,1563.0,156.0
307,1639.0,283.0
308,1444.0,475.0
309,1255.0,721.0
310,1607.0,981.0
311,2116.0,1203.0
312,2208.0,1341.0
313,1960.0,1364.0
314,1618.0,1259.0
315,1942.0,1042.0
316,2418.0,754.0
317,2420.0,459.0
318,2146.0,741.0
319,2425.0,703.0
320,2431.0,635.0
321,2426.0,550.0
322,2265.0,457.0
323,2415.0,356.0
324,2430.0,246.0
325,2434.0,133.0
326,2429.0,26.0
327,2434.0,-72.0
328,2433.0,-163.0
329,2432.0,-251.0
330,2425.0,-334.0
331,2432.0,-408.0
332,2429.0,-522.0
333,2419.0,-560.0
334,2435.0,-582.0
335,2433.0,-586.0
336,2427.0,-574.0
337,2432.0,-554.0
338,2427.0,-534.0
339,2432.0,-518.0
340,2435.0,-509.0
341,2441.0,-628.0
342,2430.0,-623.0
343,2432.0,-601.0
344,2427.0,-593.0
345,2432.0,-585.0
346,2431.0,-576.0
347,2429.0,-567.0
348,2430.0,-557.0
349,2433.0,-547.0
350,2427.0,-536.0
351,2434.0,-524.0
352,2432.0,-511.0
353,2429.0,-499.0
354,2428.0,-487.0
355,2430.0,-474.0
356,2430.0,-462.0
357,2427.0,-449.0
358,2431.0,-437.0
359,2428.0,-424.0
360,2432.0,-411.0
361,2429.0,-398.0
362,2431.0,-384.0
363,2432.0,-371.0
364,2434.0,-357.0
365,2429.0,-329.0
366,2427.0,-315.0
367,2432.0,-301.0
368,2428.0,-287.0
369,2427.0,-273.0
370,2436.0,-260.0
371,2432.0,-247.0
372,2436.0,-233.0
373,2427.0,-220.0
374,2425.0,-206.0
375,2433.0,-192.0
376,2423.0,-178.0
377,2432.0,-137.0
378,2426.0,-124.0
379,2436.0,-112.0
380,2427.0,-100.0
381,2431.0,-89.0
382,2436.0,-77.0
383,2431.0,-64.0
384,2430.0,-52.0
385,2432.0,80.0
386,2431.0,89.0
387,2425.0,97.0
388,2423.0,105.0
389,2425.0,113.0
390,2432.0,120.0
391,2422.0,127.0
392,2430.0,133.0
393,2429.0,140.0
394,2427.0,146.0
395,2423.0,152.0
396,2423.0,157.0
397,2426.0,162.0
398,2420.0,166.0
399,2423.0,170.0
400,2427.0,174.0
401,2422.0,178.0
402,2429.0,181.0
403,2432.0,184.0
404,2423.0,188.0
405,2429.0,191.0
406,2426.0,195.0
407,2108.0,199.0
408,1473.0,203.0
409,1600.0,206.0
410,2125.0,209.0
411,2135.0,212.0
412,1903.0,213.0
413,1543.0,215.0
414,1698.0,215.0
415,2253.0,216.0
416,2341.0,223.0
417,2108.0,238.0
418,1638.0,254.0
419,1712.0,257.0
420,2175.0,228.0
421,2308.0,162.0
422,2227.0,62.0
423,1707.0,-58.0
424,2165.0,-383.0
425,1933.0,-404.0
426,1541.0,-364.0
427,1583.0,-281.0
428,1887.0,-177.0
429,1955.0,-68.0
430,1665.0,41.0
431,1331.0,145.0
432,1360.0,234.0
433,1871.0,300.0
434,1863.0,344.0
435,1552.0,373.0
436,1083.0,389.0
437,1137.0,385.0
438,1663.0,355.0
439,1792.0,305.0
440,1560.0,249.0
441,1176.0,195.0
442,1199.0,142.0
443,1655.0,88.0
444,1779.0,38.0
445,1527.0,3.0
446,1140.0,-13.0
447,1097.0,-19.0
448,1424.0,-25.0
449,1572.0,-30.0
450,1410.0,-29.0
451,1005.0,-21.0
452,993.0,-10.0
453,1498.0,1.0
454,1555.0,19.0
455,1360.0,53.0
456,867.0,105.0
457,803.0,163.0
458,1334.0,211.0
459,1459.0,244.0
460,1203.0,265.0
461,645.0,276.0
462,576.0,272.0
463,1002.0,250.0
464,1136.0,220.0
465,887.0,196.0
466,472.0,187.0
467,340.0,187.0
468,784.0,188.0
469,302.0,191.0
470,58.0,192.0
471,374.0,181.0
472,563.0,158.0
473,440.0,133.0
474,64.0,109.0
475,-23.0,79.0
476,344.0,37.0
477,635.0,-11.0
478,517.0,-53.0
479,122.0,-77.0
480,-18.0,-85.0
481,375.0,-85.0
482,792.0,-84.0
483,594.0,-80.0
484,221.0,-77.0
485,0.0,-83.0
486,335.0,-102.0
487,746.0,-130.0
488,718.0,-148.0
489,401.0,-141.0
490,280.0,-109.0
491,1067.0,63.0
492,652.0,142.0
493,439.0,223.0
494,874.0,293.0
495,1227.0,348.0
496,1186.0,392.0
497,853.0,430.0
498,671.0,460.0
499,1007.0,476.0
500,1335.0,484.0
501,1287.0,499.0
502,1055.0,534.0
503,833.0,586.0
504,1217.0,644.0
505,1499.0,698.0
506,1439.0,744.0
507,1023.0,784.0
508,860.0,811.0
509,1211.0,819.0
510,1760.0,809.0
511,1735.0,789.0
512,1372.0,769.0
513,1008.0,749.0
514,1436.0,722.0
515,1934.0,687.0
516,1895.0,655.0
517,1622.0,631.0
518,1278.0,613.0
519,1599.0,588.0
520,2079.0,551.0
521,2066.0,509.0
522,1737.0,473.0
523,1430.0,444.0
524,1731.0,420.0
525,2209.0,399.0
526,2184.0,390.0
527,1893.0,395.0
528,1650.0,408.0
529,1970.0,415.0
530,2417.0,410.0
531,2415.0,398.0
532,2274.0,389.0
533,1937.0,382.0
534,2094.0,367.0
535,2427.0,339.0
536,2422.0,304.0
537,2419.0,270.0
538,2260.0,237.0
539,2350.0,200.0
540,2422.0,158.0
541,2422.0,118.0
542,2426.0,93.0
543,2385.0,83.0
544,2423.0,83.0
545,2423.0,84.0
546,2429.0,84.0
547,2428.0,82.0
548,2422.0,76.0
549,2423.0,59.0
550,2420.0,30.0
551,2432.0,-4.0
552,2422.0,-38.0
553,2372.0,-70.0
554,2219.0,-102.0
555,2335.0,-139.0
556,2385.0,-181.0
557,2263.0,-227.0
558,2426.0,-698.0
559,2426.0,-759.0
560,2434.0,-822.0
561,2419.0,-874.0
562,2428.0,-904.0
563,2436.0,-903.0
564,2429.0,-866.0
565,2431.0,-797.0
566,2428.0,-709.0
567,2425.0,-619.0
568,2431.0,-543.0
569,2423.0,-488.0
570,2432.0,-454.0
571,2426.0,-436.0
572,2428.0,-438.0
573,2436.0,-450.0
574,2427.0,-465.0
575,2432.0,-481.0
576,2431.0,-497.0
577,2429.0,-510.0
578,2433.0,-518.0
579,2428.0,-521.0
580,2426.0,-400.0
581,2425.0,-388.0
582,2108.0,-354.0
583,2217.0,-342.0
584,1994.0,-331.0
585,1579.0,-319.0
586,1411.0,-307.0
587,1764.0,-296.0
588,1990.0,-284.0
589,1801.0,-269.0
590,1424.0,-251.0
591,1267.0,-234.0
592,1686.0,-226.0
593,1943.0,-233.0
594,1750.0,-254.0
595,1517.0,-292.0
596,1303.0,-347.0
597,1708.0,-422.0
598,2016.0,-508.0
599,1928.0,-594.0
600,1687.0,-666.0
601,1497.0,-720.0
602,1834.0,-756.0
603,2187.0,-770.0
604,1848.0,-711.0
605,1519.0,-643.0
606,1783.0,-565.0
607,2095.0,-483.0
608,2029.0,-393.0
609,1691.0,-294.0
610,1471.0,-192.0
611,1837.0,-95.0
612,1687.0,328.0
613,1305.0,313.0
614,1481.0,313.0
615,1920.0,319.0
616,1899.0,329.0
617,1523.0,336.0
618,1120.0,331.0
619,1386.0,301.0
620,1814.0,248.0
621,1771.0,188.0
622,1471.0,143.0
623,1100.0,121.0
624,1207.0,121.0
625,1645.0,134.0
626,1734.0,160.0
627,1492.0,198.0
628,1088.0,238.0
629,1211.0,263.0
630,1610.0,266.0
631,1597.0,254.0
632,1318.0,240.0
633,765.0,228.0
634,833.0,215.0
635,1271.0,197.0
636,1282.0,178.0
637,1024.0,166.0
638,721.0,163.0
639,1170.0,161.0
640,927.0,178.0
641,446.0,206.0
642,622.0,230.0
643,1108.0,237.0
644,1174.0,222.0
645,836.0,190.0
646,282.0,145.0
647,334.0,88.0
648,840.0,26.0
649,939.0,-24.0
650,713.0,-48.0
651,255.0,-45.0
652,885.0,8.0
653,720.0,27.0
654,367.0,49.0
655,462.0,69.0
656,1019.0,81.0
657,1118.0,87.0
658,779.0,93.0
659,130.0,98.0
660,-16.0,96.0
661,46.0,82.0
662,47.0,64.0
663,-28.0,57.0
664,-22.0,67.0
665,-22.0,88.0
666,-20.0,115.0
667,82.0,152.0
668,107.0,210.0
669,-25.0,291.0
670,-19.0,385.0
671,220.0,468.0
672,384.0,518.0
673,341.0,517.0
674,-29.0,329.0
675,256.0,159.0
676,474.0,-22.0
677,345.0,-175.0
678,-1.0,-271.0
679,-23.0,-303.0
680,211.0,-280.0
681,586.0,-216.0
682,544.0,-123.0
683,115.0,-12.0
684,112.0,106.0
685,490.0,223.0
686,633.0,333.0
687,362.0,432.0
688,42.0,518.0
689,-19.0,581.0
690,352.0,612.0
691,629.0,614.0
692,547.0,599.0
693,95.0,580.0
694,-20.0,562.0
695,367.0,548.0
696,748.0,542.0
697,604.0,550.0
698,235.0,572.0
699,66.0,594.0
700,401.0,600.0
701,702.0,585.0
702,555.0,555.0
703,226.0,519.0
704,48.0,481.0
705,430.0,442.0
706,751.0,406.0
707,599.0,383.0
708,186.0,377.0
709,-23.0,381.0
710,373.0,385.0
711,753.0,385.0
712,615.0,386.0
713,239.0,391.0
714,-22.0,395.0
715,200.0,386.0
716,575.0,364.0
717,533.0,337.0
718,203.0,315.0
719,-22.0,297.0
720,34.0,274.0
721,377.0,244.0
722,334.0,215.0
723,-19.0,193.0
724,-21.0,176.0
725,7.0,156.0
726,203.0,130.0
727,220.0,105.0
728,-11.0,84.0
729,-24.0,66.0
730,21.0,41.0
731,364.0,7.0
732,313.0,-28.0
733,97.0,-61.0
734,-22.0,-92.0
735,69.0,-125.0
736,374.0,-164.0
737,337.0,-202.0
738,77.0,-232.0
739,-21.0,-253.0
740,8.0,-268.0
741,336.0,-278.0
742,351.0,-279.0
743,102.0,-265.0
744,-16.0,-238.0
745,-22.0,-204.0
746,146.0,-169.0
747,148.0,-134.0
748,14.0,-98.0
749,-22.0,-67.0
750,-25.0,-47.0
751,96.0,-41.0
752,203.0,-46.0
753,46.0,-54.0
754,-20.0,-62.0
755,-25.0,-72.0
756,190.0,-84.0
757,243.0,-99.0
758,-17.0,-113.0
759,-20.0,-130.0
760,-22.0,-153.0
761,53.0,-182.0
762,54.0,-212.0
763,-19.0,-236.0
764,-18.0,-248.0
765,-22.0,-250.0
766,63.0,-245.0
767,102.0,-233.0
768,-26.0,-215.0
769,-22.0,-193.0
770,-26.0,-172.0
771,34.0,-155.0
772,119.0,-144.0
773,37.0,-139.0
774,-25.0,-141.0
775,-18.0,-151.0
776,147.0,-168.0
777,194.0,-187.0
778,16.0,-200.0
779,-20.0,-206.0
780,-29.0,-205.0
781,100.0,-199.0
782,247.0,-191.0
783,43.0,-181.0
784,-20.0,-172.0
785,-27.0,-163.0
786,144.0,-157.0
787,269.0,-149.0
788,106.0,-138.0
789,-18.0,-122.0
790,-17.0,-106.0
791,375.0,-94.0
792,524.0,-86.0
793,265.0,-81.0
794,-26.0,-79.0
795,-21.0,-80.0
796,335.0,-85.0
797,581.0,-91.0
798,442.0,-93.0
799,20.0,-91.0
800,18.0,-89.0
801,544.0,-90.0
802,855.0,-91.0
803,704.0,-84.0
804,412.0,-64.0
805,436.0,-38.0
806,896.0,-12.0
807,998.0,9.0
808,599.0,28.0
809,-21.0,44.0
810,-21.0,49.0
811,59.0,42.0
812,234.0,27.0
813,272.0,17.0
814,-1.0,21.0
815,-21.0,38.0
816,425.0,65.0
817,794.0,104.0
818,727.0,161.0
819,403.0,232.0
820,235.0,295.0
821,673.0,326.0
822,990.0,307.0
823,961.0,232.0
824,866.0,138.0
825,1291.0,199.0
826,1088.0,237.0
827,770.0,261.0
828,515.0,268.0
829,959.0,250.0
830,1256.0,210.0
831,1128.0,159.0
832,834.0,110.0
833,648.0,65.0
834,1099.0,20.0
835,1508.0,-23.0
836,1501.0,-56.0
837,1046.0,-71.0
838,688.0,-71.0
839,956.0,-68.0
840,1472.0,-66.0
841,1510.0,-60.0
842,1242.0,-49.0
843,943.0,-40.0
844,1184.0,-42.0
845,1484.0,-55.0
846,1430.0,-67.0
847,1158.0,-63.0
848,868.0,-29.0
849,1271.0,-43.0
850,1293.0,-69.0
851,1083.0,-97.0
852,689.0,-125.0
853,781.0,-155.0
854,1214.0,-190.0
855,1216.0,-224.0
856,936.0,-253.0
857,573.0,-279.0
858,778.0,-310.0
859,1271.0,-347.0
860,1274.0,-382.0
861,1005.0,-405.0
862,1441.0,-408.0
863,1201.0,-394.0
864,798.0,-374.0
865,926.0,-360.0
866,1389.0,-357.0
867,1493.0,-361.0
868,1165.0,-360.0
869,785.0,-348.0
870,931.0,-332.0
871,1421.0,-315.0
872,1504.0,-295.0
873,1242.0,-265.0
874,860.0,-225.0
875,1505.0,-106.0
876,1261.0,-63.0
877,885.0,-17.0
878,920.0,18.0
879,1387.0,33.0
880,1552.0,33.0
881,1404.0,27.0
882,1034.0,21.0
883,1388.0,5.0
884,1570.0,10.0
885,1366.0,24.0
886,855.0,42.0
887,785.0,52.0
888,1216.0,46.0
889,1349.0,24.0
890,1146.0,0.0
891,803.0,-17.0
892,666.0,-29.0
893,1153.0,-39.0
894,1374.0,-45.0
895,1107.0,-41.0
896,719.0,-25.0
897,720.0,-6.0
898,1365.0,11.0
899,1143.0,14.0
900,779.0,16.0
901,661.0,9.0
902,1128.0,-14.0
903,1432.0,-48.0
904,1180.0,-79.0
905,798.0,-98.0
906,1198.0,78.0
907,801.0,83.0
908,348.0,91.0
909,247.0,98.0
910,812.0,100.0
911,1233.0,98.0
912,1258.0,109.0
913,936.0,146.0
914,697.0,212.0
915,1040.0,298.0
916,1502.0,392.0
917,1469.0,480.0
918,1064.0,540.0
919,751.0,540.0
920,1065.0,456.0
921,1463.0,292.0
922,1463.0,81.0
923,1200.0,-126.0
924,836.0,-290.0
925,1140.0,-384.0
926,1553.0,-398.0
927,1564.0,-334.0
928,1283.0,-211.0
929,939.0,-64.0
930,1245.0,71.0
931,1677.0,177.0
932,1659.0,253.0
933,1335.0,308.0
934,1048.0,346.0
935,1316.0,364.0
936,1726.0,364.0
937,1630.0,354.0
938,1352.0,344.0
939,1010.0,335.0
940,1322.0,323.0
941,1540.0,211.0
942,1178.0,196.0
943,1433.0,188.0
944,1859.0,189.0
945,1539.0,201.0
946,1015.0,213.0
947,1143.0,210.0
948,1638.0,190.0
949,1749.0,159.0
950,1479.0,134.0
951,926.0,120.0
952,1040.0,113.0
953,1590.0,108.0
954,1600.0,104.0
955,1269.0,104.0
956,837.0,103.0
957,890.0,91.0
958,1307.0,62.0
959,1358.0,20.0
960,1168.0,-21.0
961,717.0,-61.0
962,688.0,-103.0
963,1128.0,-148.0
964,749.0,-365.0
965,657.0,-357.0
966,978.0,-317.0
967,589.0,-288.0
968,503.0,-256.0
969,1023.0,-231.0
970,1200.0,-210.0
971,941.0,-187.0
972,557.0,-159.0
973,536.0,-130.0
974,1003.0,-107.0
975,1185.0,-90.0
976,1048.0,-69.0
977,605.0,-44.0
978,451.0,-23.0
979,892.0,-15.0
980,1199.0,-20.0
981,1023.0,-29.0
982,547.0,-36.0
983,397.0,-41.0
984,892.0,-49.0
985,1144.0,-54.0
986,949.0,-49.0
987,534.0,-31.0
988,306.0,-7.0
989,750.0,12.0
990,1125.0,26.0
991,991.0,41.0
992,576.0,58.0
993,335.0,74.0
994,840.0,79.0
995,1217.0,74.0
996,1082.0,70.0
997,522.0,73.0
998,296.0,78.0
999,699.0,75.0
1000,927.0,54.0
1001,550.0,49.0
1002,346.0,48.0
1003,757.0,46.0
1004,1104.0,42.0
1005,977.0,49.0
1006,625.0,73.0
1007,293.0,107.0
1008,673.0,137.0
1009,1123.0,155.0
1010,1015.0,165.0
1011,645.0,169.0
1012,360.0,164.0
1013,692.0,146.0
1014,1082.0,119.0
1015,1013.0,97.0
1016,733.0,92.0
1017,420.0,101.0
1018,715.0,113.0
1019,1122.0,121.0
1020,1053.0,128.0
1021,808.0,137.0
1022,695.0,147.0
1023,1111.0,151.0
1024,1582.0,148.0
1025,1556.0,146.0
1026,1113.0,152.0
1027,529.0,163.0
1028,502.0,170.0
1029,656.0,169.0
1030,594.0,166.0
1031,335.0,167.0
1032,832.0,260.0
1033,1347.0,57.0
1034,1343.0,-153.0
1035,1038.0,-320.0
1036,687.0,-409.0
1037,827.0,-414.0
1038,1289.0,-351.0
1039,1300.0,-239.0
1040,1032.0,-102.0
1041,674.0,31.0
1042,834.0,138.0
1043,1242.0,210.0
1044,1211.0,255.0
1045,1099.0,289.0
1046,763.0,314.0
1047,1236.0,316.0
1048,1332.0,289.0
1049,1105.0,254.0
1050,769.0,215.0
1051,929.0,170.0
1052,1391.0,121.0
1053,1505.0,73.0
1054,1233.0,36.0
1055,784.0,12.0
1056,938.0,-6.0
1057,1412.0,-24.0
1058,1534.0,-38.0
1059,936.0,-36.0
1060,981.0,-29.0
1061,1433.0,-28.0
1062,1607.0,-29.0
1063,1471.0,-24.0
1064,1082.0,-10.0
1065,1060.0,4.0
1066,1481.0,15.0
1067,1647.0,20.0
1068,1400.0,27.0
1069,988.0,34.0
1070,1147.0,15.0
1071,1369.0,-8.0
1072,1163.0,-40.0
1073,701.0,-76.0
1074,590.0,-117.0
1075,1052.0,-166.0
1076,1347.0,-219.0
1077,1278.0,-264.0
1078,927.0,-298.0
1079,801.0,-323.0
1080,1219.0,-347.0
1081,1419.0,-368.0
1082,1297.0,-375.0
1083,926.0,-365.0
1084,1521.0,-313.0
1085,1362.0,-301.0
1086,1008.0,-286.0
1087,828.0,-268.0
1088,1191.0,-249.0
1089,1483.0,-226.0
1090,1375.0,-189.0
1091,963.0,-137.0
1092,751.0,-83.0
1093,1208.0,-40.0
1094,1579.0,-15.0
1095,1451.0,-2.0
1096,1106.0,7.0
1097,893.0,13.0
1098,1288.0,13.0
1099,1627.0,8.0
1100,1570.0,5.0
1101,1195.0,7.0
1102,887.0,7.0
1103,1240.0,-4.0
1104,1623.0,-26.0
1105,1655.0,-48.0
1106,1351.0,-61.0
1107,996.0,-64.0
1108,1335.0,-62.0
1109,1631.0,-56.0
1110,1570.0,-42.0
1111,1239.0,-15.0
1112,921.0,16.0
1113,1260.0,40.0
1114,1634.0,51.0
1115,1557.0,54.0
1116,1241.0,56.0
1117,1019.0,58.0
1118,1311.0,56.0
1119,1704.0,50.0
1120,1592.0,48.0
1121,1279.0,54.0
1122,1007.0,63.0
1123,1160.0,62.0
1124,1566.0,45.0
1125,1520.0,18.0
1126,1167.0,-7.0
1127,790.0,-30.0
1128,1036.0,-52.0
1129,1477.0,-71.0
1130,1427.0,-80.0
1131,1147.0,-74.0
1132,832.0,-57.0
1133,1072.0,-40.0
1134,1444.0,-31.0
1135,1416.0,-27.0
1136,1142.0,-25.0
1137,752.0,-28.0
1138,943.0,-42.0
1139,2086.0,-126.0
1140,1716.0,-115.0
1141,1968.0,-79.0
1142,1623.0,-42.0
1143,1024.0,18.0
1144,565.0,98.0
1145,857.0,178.0
1146,1447.0,244.0
1147,1583.0,291.0
1148,1394.0,324.0
1149,992.0,352.0
1150,1119.0,378.0
1151,1666.0,408.0
1152,1813.0,447.0
1153,1560.0,490.0
1154,1143.0,511.0
1155,1289.0,475.0
1156,1711.0,359.0
1157,1794.0,171.0
1158,1550.0,-57.0
1159,1104.0,-285.0
1160,1132.0,-473.0
1161,1587.0,-593.0
1162,1763.0,-628.0
1163,1060.0,-336.0
1164,1475.0,-213.0
1165,1691.0,-108.0
1166,1458.0,-18.0
1167,1108.0,58.0
1168,1081.0,116.0
1169,1502.0,148.0
1170,1675.0,156.0
1171,1516.0,148.0
1172,983.0,128.0
1173,959.0,94.0
1174,1509.0,46.0
1175,1697.0,-6.0
1176,1489.0,-50.0
1177,1065.0,-80.0
1178,1000.0,-100.0
1179,1489.0,-115.0
1180,1744.0,-123.0
1181,1632.0,-115.0
1182,1250.0,-93.0
1183,1039.0,-67.0
1184,1419.0,-48.0
1185,1784.0,-40.0
1186,1758.0,-35.0
1187,1300.0,-28.0
1188,927.0,-23.0
1189,1299.0,-24.0
1190,1583.0,-27.0
1191,1443.0,-24.0
1192,1083.0,-9.0
1193,938.0,11.0
1194,1302.0,28.0
1195,1552.0,41.0
1196,1429.0,54.0
1197,1068.0,74.0
1198,936.0,95.0
1199,1315.0,109.0
1200,1570.0,110.0
1201,1427.0,104.0
1202,906.0,93.0
1203,596.0,72.0
1204,1056.0,35.0
1205,1443.0,-12.0
1206,567.0,-63.0
1207,793.0,-88.0
1208,1120.0,-114.0
1209,1063.0,-130.0
1210,755.0,-130.0
1211,454.0,-120.0
1212,773.0,-113.0
1213,1218.0,-115.0
1214,1079.0,-119.0
1215,687.0,-117.0
1216,379.0,-107.0
1217,711.0,-92.0
1218,1150.0,-74.0
1219,1134.0,-50.0
1220,803.0,-19.0
1221,467.0,11.0
1222,723.0,28.0
1223,1129.0,31.0
1224,1140.0,27.0
1225,832.0,29.0
1226,485.0,38.0
1227,781.0,47.0
1228,1170.0,51.0
1229,1091.0,54.0
1230,765.0,61.0
1231,427.0,70.0
1232,757.0,77.0
1233,1159.0,80.0
1234,1132.0,87.0
1235,921.0,104.0
1236,431.0,127.0
1237,586.0,146.0
1238,1036.0,154.0
1239,1067.0,159.0
1240,840.0,166.0
1241,431.0,175.0
1242,579.0,178.0
1243,1043.0,169.0
1244,1156.0,156.0
1245,888.0,147.0
1246,488.0,144.0
1247,667.0,142.0
1248,1169.0,137.0
1249,1244.0,132.0
1250,932.0,131.0
1251,420.0,131.0
1252,494.0,122.0
1253,972.0,102.0
1254,1107.0,79.0
1255,877.0,65.0
1256,552.0,71.0
1257,1028.0,78.0
1258,1132.0,88.0
1259,950.0,108.0
1260,593.0,136.0
1261,609.0,163.0
1262,999.0,176.0
1263,1096.0,176.0
1264,969.0,168.0
1265,503.0,153.0
1266,549.0,127.0
1267,1101.0,91.0
1268,1184.0,55.0
1269,949.0,34.0
1270,504.0,31.0
1271,530.0,40.0
1272,999.0,52.0
1273,1156.0,64.0
1274,1044.0,80.0
1275,664.0,97.0
1276,766.0,108.0
1277,1310.0,106.0
1278,1583.0,96.0
1279,1073.0,86.0
1280,968.0,87.0
1281,1181.0,82.0
1282,1039.0,73.0
1283,451.0,64.0
1284,-23.0,58.0
1285,32.0,49.0
1286,534.0,36.0
1287,883.0,27.0
1288,801.0,36.0
1289,484.0,72.0
1290,475.0,131.0
1291,1011.0,204.0
1292,546.0,375.0
1293,945.0,278.0
1294,1198.0,110.0
1295,1129.0,-98.0
1296,790.0,-306.0
1297,643.0,-478.0
1298,1006.0,-587.0
1299,1270.0,-615.0
1300,1187.0,-559.0
1301,815.0,-437.0
1302,704.0,-283.0
1303,1121.0,-136.0
1304,1388.0,-15.0
1305,1231.0,75.0
1306,868.0,139.0
1307,714.0,178.0
1308,1177.0,193.0
1309,1524.0,189.0
1310,1488.0,180.0
1311,1097.0,171.0
1312,945.0,160.0
1313,1370.0,141.0
1314,1680.0,114.0
1315,1652.0,90.0
1316,1337.0,75.0
1317,1068.0,68.0
1318,1407.0,59.0
1319,1813.0,48.0
1320,1802.0,42.0
1321,1458.0,44.0
1322,1259.0,52.0
1323,1540.0,61.0
1324,1836.0,71.0
1325,1706.0,87.0
1326,1432.0,115.0
1327,1166.0,145.0
1328,1555.0,168.0
1329,1845.0,177.0
1330,1752.0,180.0
1331,1373.0,181.0
1332,1078.0,180.0
1333,1428.0,174.0
1334,1713.0,161.0
1335,678.0,-170.0
1336,953.0,-199.0
1337,1364.0,-235.0
1338,1303.0,-269.0
1339,961.0,-293.0
1340,583.0,-311.0
1341,906.0,-331.0
1342,1421.0,-356.0
1343,1308.0,-380.0
1344,1020.0,-396.0
1345,768.0,-404.0
1346,907.0,-410.0
1347,1431.0,-415.0
1348,1406.0,-413.0
1349,870.0,-368.0
1350,1252.0,-361.0
1351,1328.0,-355.0
1352,1035.0,-341.0
1353,659.0,-317.0
1354,911.0,-290.0
1355,1306.0,-264.0
1356,1295.0,-234.0
1357,681.0,-104.0
1358,762.0,-89.0
1359,1274.0,-77.0
1360,1468.0,-67.0
1361,1116.0,-53.0
1362,736.0,-34.0
1363,841.0,-17.0
1364,1341.0,-6.0
1365,1462.0,1.0
1366,1206.0,15.0
1367,749.0,35.0
1368,790.0,52.0
1369,1316.0,57.0
1370,1462.0,52.0
1371,1204.0,46.0
1372,656.0,41.0
1373,792.0,34.0
1374,1387.0,20.0
1375,1538.0,7.0
1376,1325.0,5.0
1377,872.0,17.0
1378,885.0,33.0
1379,1397.0,44.0
1380,1627.0,50.0
1381,1457.0,57.0
1382,920.0,68.0
1383,818.0,72.0
1384,1241.0,65.0
1385,1459.0,51.0
1386,1297.0,44.0
1387,896.0,48.0
1388,873.0,58.0
1389,1303.0,68.0
1390,1535.0,79.0
1391,1395.0,99.0
1392,1023.0,129.0
1393,991.0,158.0
1394,1396.0,176.0
1395,1615.0,180.0
1396,1455.0,176.0
1397,1113.0,167.0
1398,988.0,146.0
1399,1408.0,112.0
1400,1693.0,71.0
1401,1519.0,38.0
1402,1134.0,21.0
1403,1030.0,20.0
1404,1395.0,26.0
1405,1630.0,38.0
1406,1432.0,58.0
1407,1133.0,86.0
1408,1149.0,113.0
1409,1721.0,132.0
1410,2158.0,140.0
1411,2001.0,147.0
1412,1489.0,155.0
1413,1113.0,161.0
1414,1267.0,160.0
1415,1285.0,151.0
1416,1039.0,142.0
1417,596.0,133.0
1418,472.0,118.0
1419,971.0,91.0
1420,1367.0,60.0
1421,1352.0,44.0
1422,1107.0,58.0
1423,943.0,105.0
1424,1284.0,173.0
1425,1653.0,246.0
1426,1583.0,303.0
1427,1207.0,321.0
1428,973.0,275.0
1429,1735.0,27.0
1430,1637.0,96.0
1431,1230.0,148.0
1432,1422.0,204.0
1433,1767.0,205.0
1434,1675.0,196.0
1435,1366.0,186.0
1436,1024.0,173.0
1437,1368.0,150.0
1438,1753.0,118.0
1439,1726.0,87.0
1440,1534.0,63.0
1441,1140.0,46.0
1442,1409.0,28.0
1443,1777.0,8.0
1444,1752.0,-5.0
1445,1483.0,-5.0
1446,1180.0,2.0
1447,1465.0,11.0
1448,1821.0,15.0
1449,1743.0,17.0
1450,1488.0,22.0
1451,1212.0,29.0
1452,1360.0,32.0
1453,1757.0,31.0
1454,1718.0,33.0
1455,1416.0,41.0
1456,977.0,54.0
1457,1160.0,61.0
1458,1572.0,57.0
1459,1541.0,49.0
1460,1266.0,42.0
1461,836.0,40.0
1462,999.0,35.0
1463,1383.0,25.0
1464,560.0,-253.0
1465,649.0,-263.0
1466,1086.0,-278.0
1467,1221.0,-293.0
1468,1020.0,-301.0
1469,617.0,-300.0
1470,663.0,-296.0
1471,1171.0,-294.0
1472,1196.0,-294.0
1473,931.0,-290.0
1474,476.0,-280.0
1475,574.0,-268.0
1476,1091.0,-258.0
1477,1243.0,-242.0
1478,1304.0,-53.0
1479,1396.0,-6.0
1480,1198.0,37.0
1481,919.0,78.0
1482,920.0,106.0
1483,1336.0,114.0
1484,1472.0,107.0
1485,1257.0,95.0
1486,799.0,84.0
1487,897.0,76.0
1488,1394.0,69.0
1489,1460.0,72.0
1490,1284.0,95.0
1491,904.0,135.0
1492,955.0,182.0
1493,1369.0,224.0
1494,1528.0,260.0
1495,1310.0,291.0
1496,938.0,318.0
1497,889.0,332.0
1498,1333.0,327.0
1499,1498.0,308.0
1500,1325.0,284.0
1501,962.0,261.0
1502,847.0,236.0
1503,1262.0,207.0
1504,1541.0,180.0
1505,1430.0,162.0
1506,1007.0,156.0
1507,869.0,152.0
1508,1346.0,144.0
1509,1664.0,131.0
1510,1553.0,121.0
1511,1154.0,115.0
1512,946.0,108.0
1513,1295.0,96.0
1514,1591.0,78.0
1515,1510.0,64.0
1516,1091.0,58.0
1517,866.0,56.0
1518,1263.0,51.0
1519,1616.0,45.0
1520,1500.0,44.0
1521,1047.0,56.0
1522,864.0,75.0
1523,1289.0,92.0
1524,1574.0,105.0
1525,1460.0,116.0
1526,989.0,127.0
1527,1307.0,120.0
1528,1690.0,93.0
1529,1502.0,62.0
1530,1138.0,38.0
1531,922.0,19.0
1532,1230.0,0.0
1533,1572.0,-19.0
1534,1475.0,-32.0
1535,1084.0,-36.0
1536,968.0,-38.0
1537,1392.0,-45.0
1538,1843.0,-58.0
1539,1878.0,-68.0
1540,1593.0,-66.0
1541,1223.0,-54.0
1542,1269.0,-41.0
1543,1349.0,-29.0
1544,1042.0,-16.0
1545,663.0,-1.0
1546,395.0,6.0
1547,1662.0,23.0
1548,1649.0,-134.0
1549,1430.0,-292.0
1550,1156.0,-415.0
1551,1403.0,-482.0
1552,1825.0,-483.0
1553,1766.0,-418.0
1554,1495.0,-307.0
1555,1130.0,-181.0
1556,1359.0,-74.0
1557,1712.0,-1.0
1558,1807.0,41.0
1559,1553.0,68.0
1560,1157.0,90.0
1561,1815.0,160.0
1562,1622.0,190.0
1563,1302.0,216.0
1564,1502.0,225.0
1565,1950.0,213.0
1566,1975.0,186.0
1567,1805.0,156.0
1568,1378.0,127.0
1569,1978.0,48.0
1570,2145.0,57.0
1571,1835.0,63.0
1572,1367.0,66.0
1573,1405.0,60.0
1574,1757.0,42.0
1575,1957.0,22.0
1576,1786.0,10.0
1577,1305.0,11.0
1578,1211.0,18.0
1579,1688.0,22.0
1580,1825.0,23.0
1581,1537.0,23.0
1582,1165.0,22.0
1583,1125.0,12.0
1584,1584.0,-11.0
1585,1659.0,-46.0
1586,1371.0,-84.0
1587,977.0,-118.0
1588,981.0,-152.0
1589,1486.0,-187.0
1590,1655.0,-220.0
1591,1474.0,-242.0
1592,1056.0,-253.0
1593,1297.0,-241.0
1594,1558.0,-219.0
1595,1367.0,-191.0
1596,985.0,-156.0
1597,852.0,-125.0
1598,1205.0,-104.0
1599,1544.0,-92.0
1600,1385.0,-81.0
1601,964.0,-67.0
1602,799.0,-57.0
1603,1225.0,-58.0
1604,1477.0,-70.0
1605,1298.0,-83.0
1606,995.0,-88.0
1607,863.0,-85.0
1608,1183.0,-77.0
1609,1462.0,-66.0
1610,1347.0,-45.0
1611,1026.0,-17.0
1612,865.0,9.0
1613,1153.0,25.0
1614,1507.0,31.0
1615,1411.0,34.0
1616,1102.0,40.0
1617,888.0,47.0
1618,1215.0,48.0
1619,1600.0,45.0
1620,1440.0,44.0
1621,1118.0,49.0
1622,890.0,58.0
1623,1305.0,64.0
1624,1694.0,65.0
1625,1594.0,68.0
1626,1240.0,78.0
1627,917.0,90.0
1628,1240.0,99.0
1629,1707.0,104.0
1630,1650.0,112.0
1631,1288.0,126.0
1632,1044.0,143.0
1633,1328.0,152.0
1634,1596.0,152.0
1635,1416.0,152.0
1636,1162.0,158.0
1637,984.0,169.0
1638,1257.0,178.0
1639,1561.0,181.0
1640,1482.0,183.0
1641,1190.0,188.0
1642,887.0,191.0
1643,1519.0,179.0
1644,1568.0,170.0
1645,1362.0,166.0
1646,988.0,162.0
1647,1245.0,146.0
1648,1669.0,117.0
1649,1662.0,82.0
1650,1374.0,53.0
1651,1066.0,33.0
1652,1255.0,16.0
1653,1757.0,2.0
1654,1867.0,-8.0
1655,1596.0,-11.0
1656,1266.0,-9.0
1657,1570.0,-7.0
1658,2143.0,-3.0
1659,2272.0,7.0
1660,2052.0,33.0
1661,1501.0,70.0
1662,1308.0,104.0
1663,1727.0,404.0
1664,1268.0,362.0
1665,1313.0,257.0
1666,1871.0,93.0
1667,2023.0,-98.0
1668,1735.0,-274.0
1669,1376.0,-398.0
1670,1459.0,-454.0
1671,1810.0,-442.0
1672,1984.0,-371.0
1673,1772.0,-258.0
1674,1439.0,-128.0
1675,1330.0,-11.0
1676,1734.0,73.0
1677,1299.0,178.0
1678,1253.0,182.0
1679,1661.0,169.0
1680,1878.0,147.0
1681,1696.0,124.0
1682,1345.0,105.0
1683,1358.0,83.0
1684,1804.0,54.0
1685,2007.0,21.0
1686,1821.0,-7.0
1687,1397.0,-26.0
1688,1334.0,-42.0
1689,1697.0,-59.0
1690,1929.0,-79.0
1691,1751.0,-95.0
1692,1350.0,-107.0
1693,1231.0,-119.0
1694,1681.0,-135.0
1695,1990.0,-150.0
1696,1787.0,-153.0
1697,1327.0,-138.0
1698,1213.0,-111.0
1699,1687.0,-83.0
1700,1830.0,-59.0
1701,1686.0,-81.0
1702,1211.0,-92.0
1703,985.0,-96.0
1704,1322.0,-101.0
1705,1597.0,-108.0
1706,1487.0,-109.0
1707,1146.0,-102.0
1708,882.0,-93.0
1709,1159.0,-87.0
1710,1420.0,-85.0
1711,1202.0,-80.0
1712,832.0,-71.0
1713,608.0,-65.0
1714,952.0,-73.0
1715,1353.0,-97.0
1716,1174.0,-131.0
1717,766.0,-165.0
1718,467.0,-199.0
1719,850.0,-234.0
1720,1181.0,-266.0
1721,1040.0,-286.0
1722,732.0,-293.0
1723,420.0,-294.0
1724,634.0,-301.0
1725,956.0,-319.0
1726,588.0,-347.0
1727,244.0,-347.0
1728,517.0,-341.0
1729,967.0,-330.0
1730,896.0,-310.0
1731,572.0,-280.0
1732,197.0,-249.0
1733,570.0,-224.0
1734,1100.0,-209.0
1735,954.0,-197.0
1736,535.0,-182.0
1737,228.0,-167.0
1738,554.0,-158.0
1739,1007.0,-159.0
1740,883.0,-160.0
1741,559.0,-154.0
1742,225.0,-139.0
1743,516.0,-123.0
1744,934.0,-105.0
1745,982.0,-81.0
1746,685.0,-44.0
1747,362.0,0.0
1748,652.0,40.0
1749,1144.0,73.0
1750,1222.0,100.0
1751,892.0,128.0
1752,507.0,152.0
1753,742.0,165.0
1754,1168.0,165.0
1755,1168.0,161.0
1756,915.0,163.0
1757,560.0,170.0
1758,808.0,177.0
1759,1399.0,183.0
1760,1586.0,196.0
1761,1364.0,223.0
1762,970.0,263.0
1763,1186.0,306.0
1764,1661.0,344.0
1765,1736.0,378.0
1766,1499.0,408.0
1767,1035.0,430.0
1768,1068.0,435.0
1769,1520.0,419.0
1770,1581.0,394.0
1771,1310.0,377.0
1772,910.0,376.0
1773,1023.0,390.0
1774,1491.0,416.0
1775,1591.0,456.0
1776,1366.0,508.0
1777,951.0,563.0
1778,990.0,605.0
1779,1421.0,621.0
1780,1583.0,610.0
1781,1355.0,580.0
1782,842.0,534.0
1783,819.0,470.0
1784,1310.0,389.0
1785,1483.0,303.0
1786,1247.0,226.0
1787,709.0,165.0
1788,719.0,117.0
1789,1255.0,78.0
1790,1491.0,48.0
1791,1293.0,32.0
1792,963.0,28.0
1793,1091.0,24.0
1794,1588.0,13.0
1795,1806.0,-5.0
1796,1539.0,-22.0
1797,839.0,-37.0
1798,505.0,-55.0
1799,721.0,-82.0
1800,773.0,-114.0
1801,721.0,-142.0
1802,520.0,-160.0
1803,600.0,-170.0
1804,1184.0,-174.0
1805,956.0,-541.0
1806,842.0,-510.0
1807,1356.0,-424.0
1808,1691.0,-309.0
1809,1612.0,-186.0
1810,1244.0,-75.0
1811,975.0,8.0
1812,1343.0,58.0
1813,1737.0,84.0
1814,1648.0,100.0
1815,1358.0,115.0
1816,1182.0,122.0
1817,1528.0,114.0
1818,1816.0,89.0
1819,1632.0,59.0
1820,1335.0,37.0
1821,1137.0,26.0
1822,1496.0,22.0
1823,1852.0,25.0
1824,1700.0,38.0
1825,1385.0,58.0
1826,1089.0,77.0
1827,1482.0,85.0
1828,1847.0,85.0
1829,1485.0,-49.0
1830,1077.0,-55.0
1831,1314.0,-68.0
1832,1784.0,-85.0
1833,1792.0,-99.0
1834,1376.0,-101.0
1835,1040.0,-92.0
1836,1333.0,-82.0
1837,1703.0,-73.0
1838,1600.0,-62.0
1839,1263.0,-47.0
1840,874.0,-32.0
1841,1166.0,-28.0
1842,1665.0,-41.0
1843,1616.0,-64.0
1844,1290.0,-89.0
1845,971.0,-117.0
1846,1227.0,-151.0
1847,1711.0,-190.0
1848,1712.0,-224.0
1849,1432.0,-244.0
1850,1071.0,-254.0
1851,1265.0,-265.0
1852,1696.0,-284.0
1853,827.0,-83.0
1854,966.0,-61.0
1855,1424.0,-51.0
1856,1476.0,-49.0
1857,1271.0,-47.0
1858,789.0,-50.0
1859,921.0,-65.0
1860,1454.0,-100.0
1861,1525.0,-148.0
1862,1224.0,-198.0
1863,814.0,-244.0
1864,899.0,-283.0
1865,1449.0,-314.0
1866,1557.0,-325.0
1867,950.0,-274.0
1868,982.0,-229.0
1869,1440.0,-189.0
1870,1669.0,-154.0
1871,1480.0,-119.0
1872,975.0,-84.0
1873,905.0,-56.0
1874,1329.0,-39.0
1875,1440.0,-28.0
1876,1232.0,-15.0
1877,820.0,2.0
1878,764.0,20.0
1879,1203.0,32.0
1880,1345.0,42.0
1881,1128.0,59.0
1882,727.0,84.0
1883,832.0,109.0
1884,1369.0,125.0
1885,1548.0,132.0
1886,1371.0,134.0
1887,905.0,131.0
1888,803.0,117.0
1889,1278.0,87.0
1890,1394.0,8.0
1891,1001.0,-22.0
1892,944.0,-49.0
1893,1333.0,-73.0
1894,1557.0,-90.0
1895,1398.0,-91.0
1896,1023.0,-70.0
1897,857.0,-34.0
1898,1307.0,4.0
1899,1623.0,44.0
1900,1456.0,82.0
1901,1024.0,117.0
1902,920.0,140.0
1903,1376.0,149.0
1904,1626.0,149.0
1905,1528.0,153.0
1906,1061.0,165.0
1907,823.0,181.0
1908,1198.0,189.0
1909,1576.0,187.0
1910,1410.0,180.0
1911,1037.0,174.0
1912,991.0,166.0
1913,1544.0,155.0
1914,1045.0,162.0
1915,826.0,153.0
1916,506.0,141.0
1917,390.0,123.0
1918,932.0,96.0
1919,1361.0,69.0
1920,1261.0,58.0
1921,967.0,77.0
1922,736.0,126.0
1923,1125.0,188.0
1924,1420.0,244.0
1925,1295.0,277.0
1926,951.0,270.0
1927,732.0,205.0
1928,1100.0,81.0
1929,1508.0,-79.0
1930,1420.0,-235.0
1931,1111.0,-347.0
1932,776.0,-396.0
1933,1126.0,-383.0
1934,1618.0,-321.0
1935,1565.0,-227.0
1936,1167.0,-123.0
1937,849.0,-34.0
1938,1148.0,25.0
1939,1655.0,54.0
1940,1636.0,70.0
1941,1296.0,87.0
1942,895.0,109.0
1943,1136.0,130.0
1944,1556.0,146.0
1945,1491.0,160.0
1946,1168.0,175.0
1947,959.0,186.0
1948,1203.0,187.0
1949,1423.0,78.0
1950,1159.0,59.0
1951,753.0,50.0
1952,895.0,45.0
1953,1381.0,37.0
1954,1406.0,29.0
1955,1255.0,25.0
1956,812.0,25.0
1957,945.0,23.0
1958,1295.0,18.0
1959,1308.0,13.0
1960,1075.0,14.0
1961,694.0,16.0
1962,845.0,9.0
1963,1316.0,-12.0
1964,1343.0,-44.0
1965,1037.0,-74.0
1966,559.0,-95.0
1967,671.0,-108.0
1968,1179.0,-116.0
1969,1291.0,-115.0
1970,1090.0,-103.0
1971,701.0,-87.0
1972,696.0,-78.0
1973,1191.0,-83.0
1974,1320.0,-97.0
1975,1085.0,-107.0
1976,684.0,-109.0
1977,717.0,-108.0
1978,1114.0,-109.0
1979,1276.0,-113.0
1980,1052.0,-115.0
1981,686.0,-115.0
1982,712.0,-118.0
1983,1153.0,-124.0
1984,1333.0,-125.0
1985,1100.0,-114.0
1986,749.0,-89.0
1987,1427.0,-31.0
1988,1204.0,-23.0
1989,751.0,-15.0
1990,682.0,-10.0
1991,1137.0,-13.0
1992,1389.0,-19.0
1993,1271.0,-19.0
1994,890.0,-11.0
1995,768.0,0.0
1996,1126.0,6.0
1997,1358.0,13.0
1998,1186.0,26.0
1999,795.0,47.0
2000,760.0,69.0
2001,1212.0,82.0
2002,1416.0,84.0
2003,1256.0,82.0
2004,759.0,80.0
2005,561.0,75.0
2006,1013.0,66.0
2007,1243.0,57.0
2008,1063.0,56.0
2009,687.0,64.0
2010,551.0,69.0
2011,935.0,65.0
2012,1234.0,50.0
2013,1168.0,37.0
2014,760.0,33.0
2015,676.0,35.0
2016,1175.0,36.0
2017,1613.0,33.0
2018,1479.0,27.0
2019,1184.0,18.0
2020,960.0,0.0
2021,1337.0,-29.0
2022,1800.0,-65.0
2023,1707.0,-93.0
2024,1301.0,-104.0
2025,1072.0,-103.0
2026,1440.0,-98.0
2027,1741.0,-89.0
2028,1603.0,-69.0
2029,1297.0,-33.0
2030,1090.0,14.0
2031,1539.0,66.0
2032,2002.0,118.0
2033,1858.0,171.0
2034,1435.0,224.0
2035,1168.0,269.0
2036,1518.0,296.0
2037,1915.0,304.0
2038,1824.0,300.0
2039,1575.0,291.0
2040,1263.0,273.0
2041,1625.0,241.0
2042,2047.0,198.0
2043,1964.0,157.0
2044,1609.0,131.0
2045,1264.0,119.0
2046,1560.0,115.0
2047,1980.0,113.0
2048,1977.0,113.0
2049,1646.0,114.0
2050,1306.0,109.0
2051,1717.0,91.0
2052,2268.0,66.0
2053,2307.0,44.0
2054,2018.0,38.0
2055,1592.0,44.0
2056,1544.0,51.0
2057,1661.0,50.0
2058,1427.0,42.0
2059,967.0,32.0
2060,568.0,17.0
2061,851.0,-7.0
2062,1358.0,-37.0
2063,1461.0,-61.0
2064,1151.0,-65.0
2065,816.0,-45.0
2066,1068.0,-10.0
2067,1557.0,30.0
2068,1576.0,68.0
2069,1256.0,89.0
2070,870.0,73.0
2071,1024.0,1.0
2072,1568.0,-126.0
2073,1498.0,-287.0
2074,1189.0,-445.0
2075,814.0,-570.0
2076,954.0,-647.0
2077,1408.0,-669.0
2078,1490.0,-637.0
2079,1196.0,-561.0
2080,768.0,-462.0
2081,873.0,-365.0
2082,1296.0,-286.0
2083,1341.0,-221.0
2084,1145.0,-162.0
2085,844.0,-108.0
2086,861.0,-65.0
2087,1253.0,-39.0
2088,1375.0,-25.0
2089,1166.0,-18.0
2090,736.0,-17.0
2091,778.0,-25.0
2092,1396.0,-64.0
2093,1254.0,-80.0
2094,828.0,-89.0
2095,858.0,-96.0
2096,1337.0,-104.0
2097,1442.0,-109.0
2098,1192.0,-103.0
2099,763.0,-86.0
2100,683.0,-66.0
2101,1056.0,-52.0
2102,1223.0,-45.0
2103,1033.0,-38.0
2104,654.0,-29.0
2105,624.0,-21.0
2106,1039.0,-14.0
2107,1236.0,-4.0
2108,1007.0,15.0
2109,570.0,44.0
2110,547.0,72.0
2111,1026.0,87.0
2112,1214.0,87.0
2113,1012.0,76.0
2114,503.0,59.0
2115,407.0,32.0
2116,805.0,-1.0
2117,1047.0,-34.0
2118,868.0,-54.0
2119,508.0,-58.0
2120,292.0,-52.0
2121,671.0,-47.0
2122,1009.0,-43.0
2123,791.0,-35.0
2124,315.0,-21.0
2125,137.0,-6.0
2126,504.0,2.0
2127,735.0,5.0
2128,624.0,9.0
2129,323.0,14.0
2130,208.0,14.0
2131,556.0,5.0
2132,932.0,-8.0
2133,805.0,-18.0
2134,394.0,-17.0
2135,234.0,-11.0
2136,566.0,-9.0
2137,910.0,-14.0
2138,872.0,-21.0
2139,645.0,-28.0
2140,523.0,-36.0
2141,860.0,-48.0
2142,1179.0,-58.0
2143,1050.0,-54.0
2144,652.0,-29.0
2145,471.0,9.0
2146,846.0,51.0
2147,1143.0,87.0
2148,1000.0,118.0
2149,684.0,145.0
2150,432.0,165.0
2151,397.0,291.0
2152,667.0,324.0
2153,1034.0,339.0
2154,982.0,338.0
2155,739.0,325.0
2156,378.0,302.0
2157,686.0,268.0
2158,1084.0,228.0
2159,1060.0,193.0
2160,742.0,167.0
2161,491.0,148.0
2162,940.0,129.0
2163,1300.0,106.0
2164,1147.0,86.0
2165,805.0,73.0
2166,538.0,66.0
2167,818.0,57.0
2168,1240.0,45.0
2169,1234.0,37.0
2170,913.0,37.0
2171,600.0,43.0
2172,687.0,50.0
2173,1096.0,56.0
2174,1176.0,68.0
2175,952.0,90.0
2176,567.0,118.0
2177,690.0,141.0
2178,1021.0,153.0
2179,1036.0,156.0
2180,791.0,154.0
2181,420.0,150.0
2182,1090.0,98.0
2183,896.0,83.0
2184,497.0,71.0
2185,455.0,54.0
2186,910.0,31.0
2187,1251.0,7.0
2188,1044.0,-9.0
2189,514.0,-21.0
2190,1659.0,-32.0
2191,1488.0,-14.0
2192,1093.0,10.0
2193,953.0,33.0
2194,896.0,46.0
2195,761.0,51.0
2196,440.0,52.0
2197,143.0,49.0
2198,243.0,36.0
2199,785.0,14.0
2200,1026.0,-10.0
2201,976.0,-20.0
2202,697.0,-4.0
2203,765.0,36.0
2204,1175.0,95.0
2205,1325.0,157.0
2206,1222.0,205.0
2207,913.0,214.0
2208,884.0,162.0
2209,1250.0,48.0
2210,1460.0,-107.0
2211,1388.0,-265.0
2212,1116.0,-387.0
2213,1017.0,-450.0
2214,1314.0,-451.0
2215,1461.0,-393.0
2216,1327.0,-295.0
2217,1043.0,-181.0
2218,955.0,-75.0
2219,1348.0,5.0
2220,1567.0,61.0
2221,1503.0,104.0
2222,1231.0,142.0
2223,1111.0,176.0
2224,1527.0,202.0
2225,1768.0,218.0
2226,1572.0,225.0
2227,1264.0,221.0
2228,1156.0,201.0
2229,1509.0,161.0
2230,1823.0,108.0
2231,1683.0,56.0
2232,1327.0,14.0
2233,1143.0,-13.0
2234,1453.0,-29.0
2235,1778.0,-32.0
2236,1751.0,-22.0
2237,1510.0,0.0
2238,1326.0,21.0
2239,1610.0,33.0
2240,1890.0,34.0
2241,1741.0,29.0
2242,1513.0,26.0
2243,1320.0,22.0
2244,1489.0,14.0
2245,1778.0,1.0
2246,1678.0,-12.0
2247,1352.0,-23.0
2248,1061.0,-33.0
2249,1364.0,-46.0
2250,1749.0,-58.0
2251,1661.0,-62.0
2252,1337.0,-54.0
2253,1043.0,-39.0
2254,1333.0,-29.0
2255,1664.0,-28.0
2256,1597.0,-34.0
2257,1278.0,-45.0
2258,928.0,-60.0
2259,1072.0,-86.0
2260,1505.0,-119.0
2261,1505.0,-153.0
2262,1217.0,-180.0
2263,878.0,-200.0
2264,1365.0,-239.0
2265,1093.0,-234.0
2266,802.0,-224.0
2267,1023.0,-217.0
2268,1359.0,-218.0
2269,1344.0,-224.0
2270,1058.0,-228.0
2271,763.0,-230.0
2272,1135.0,-219.0
2273,715.0,-207.0
2274,827.0,-192.0
2275,1266.0,-179.0
2276,1397.0,-166.0
2277,1149.0,-150.0
2278,721.0,-133.0
2279,744.0,-120.0
2280,1108.0,-114.0
2281,1247.0,-107.0
2282,1084.0,-92.0
2283,768.0,-70.0
2284,906.0,-50.0
2285,1301.0,-37.0
2286,768.0,-11.0
2287,951.0,-2.0
2288,1327.0,1.0
2289,1351.0,3.0
2290,1092.0,5.0
2291,749.0,8.0
2292,807.0,5.0
2293,1305.0,-3.0
2294,824.0,100.0
2295,1185.0,104.0
2296,1329.0,105.0
2297,1205.0,110.0
2298,803.0,118.0
2299,741.0,122.0
2300,1083.0,119.0
2301,1216.0,112.0
2302,1058.0,107.0
2303,786.0,106.0
2304,739.0,105.0
2305,1116.0,99.0
2306,1224.0,92.0
2307,1063.0,91.0
2308,722.0,97.0
2309,688.0,105.0
2310,1079.0,105.0
2311,1318.0,98.0
2312,1165.0,88.0
2313,680.0,77.0
2314,654.0,64.0
2315,1054.0,46.0
2316,1190.0,29.0
2317,994.0,20.0
2318,619.0,23.0
2319,621.0,29.0
2320,1075.0,33.0
2321,1269.0,33.0
2322,1215.0,36.0
2323,1091.0,44.0
2324,1097.0,54.0
2325,1520.0,62.0
2326,1700.0,68.0
2327,1349.0,77.0
2328,699.0,86.0
2329,344.0,88.0
2330,691.0,77.0
2331,972.0,57.0
2332,989.0,38.0
2333,922.0,30.0
2334,979.0,114.0
2335,1314.0,-5.0
2336,1609.0,-98.0
2337,1536.0,-139.0
2338,1241.0,-119.0
2339,1032.0,-54.0
2340,1443.0,28.0
2341,1780.0,108.0
2342,1694.0,174.0
2343,1429.0,224.0
2344,1077.0,255.0
2345,1274.0,267.0
2346,1674.0,266.0
2347,1687.0,261.0
2348,1400.0,257.0
2349,1840.0,45.0
2350,1761.0,50.0
2351,1422.0,57.0
2352,1087.0,63.0
2353,1295.0,58.0
2354,1646.0,41.0
2355,1538.0,18.0
2356,1293.0,-3.0
2357,923.0,-24.0
2358,1000.0,-46.0
2359,1357.0,-69.0
2360,1389.0,-86.0
2361,1204.0,-93.0
2362,849.0,-93.0
2363,909.0,-95.0
2364,735.0,-139.0
2365,814.0,-160.0
2366,1104.0,-191.0
2367,1211.0,-226.0
2368,1039.0,-258.0
2369,669.0,-284.0
2370,694.0,-310.0
2371,1088.0,-334.0
2372,1160.0,-352.0
2373,922.0,-356.0
2374,608.0,-349.0
2375,718.0,-339.0
2376,1105.0,-333.0
2377,1273.0,-329.0
2378,1085.0,-322.0
2379,766.0,-312.0
2380,731.0,-301.0
2381,1093.0,-293.0
2382,1261.0,-282.0
2383,1163.0,-265.0
2384,1612.0,48.0
2385,1361.0,62.0
2386,1030.0,86.0
2387,1017.0,115.0
2388,1418.0,142.0
2389,1609.0,163.0
2390,1485.0,182.0
2391,1096.0,197.0
2392,926.0,205.0
2393,1416.0,203.0
2394,1674.0,197.0
2395,1505.0,196.0
2396,1135.0,201.0
2397,1033.0,206.0
2398,1490.0,203.0
2399,1818.0,191.0
2400,1759.0,177.0
2401,1391.0,165.0
2402,1128.0,154.0
2403,1536.0,139.0
2404,1807.0,124.0
2405,1700.0,113.0
2406,1264.0,110.0
2407,1858.0,156.0
2408,1735.0,120.0
2409,1385.0,81.0
2410,1477.0,-3.0
2411,1869.0,-45.0
2412,1831.0,-76.0
2413,1526.0,-91.0
2414,1334.0,-95.0
2415,1569.0,-93.0
2416,1925.0,-89.0
2417,1903.0,-75.0
2418,1762.0,-50.0
2419,1596.0,-18.0
2420,1909.0,11.0
2421,2214.0,33.0
2422,2048.0,50.0
2423,1524.0,65.0
2424,977.0,75.0
2425,1000.0,76.0
2426,1277.0,71.0
2427,1215.0,67.0
2428,1051.0,70.0
2429,956.0,76.0
2430,1219.0,81.0
2431,1595.0,86.0
2432,1569.0,100.0
2433,1365.0,128.0
2434,1116.0,164.0
2435,1170.0,187.0
2436,1478.0,181.0
2437,1463.0,133.0
2438,1296.0,43.0
2439,1000.0,-83.0
2440,1126.0,-232.0
2441,1461.0,-376.0
2442,1496.0,-482.0
2443,1290.0,-528.0
2444,968.0,-513.0
2445,1056.0,-457.0
2446,1429.0,-381.0
2447,1545.0,-303.0
2448,1316.0,-236.0
2449,948.0,-185.0
2450,1028.0,-152.0
2451,1480.0,-133.0
2452,1566.0,-115.0
2453,1369.0,-92.0
2454,1029.0,-63.0
2455,1129.0,-39.0
2456,1450.0,-28.0
2457,1578.0,-28.0
2458,1502.0,-33.0
2459,1231.0,-41.0
2460,1157.0,-51.0
2461,1518.0,-62.0
2462,1660.0,-69.0
2463,1479.0,-65.0
2464,1175.0,-50.0
2465,1593.0,-18.0
2466,1765.0,-5.0
2467,1693.0,8.0
2468,1434.0,26.0
2469,1371.0,42.0
2470,1752.0,54.0
2471,1871.0,64.0
2472,1671.0,77.0
2473,1323.0,94.0
2474,1399.0,107.0
2475,1786.0,109.0
2476,1827.0,102.0
2477,1623.0,95.0
2478,1237.0,93.0
2479,1245.0,97.0
2480,1602.0,104.0
2481,1726.0,118.0
2482,1558.0,140.0
2483,1162.0,165.0
2484,1040.0,183.0
2485,1463.0,187.0
2486,1627.0,177.0
2487,1424.0,163.0
2488,1129.0,148.0
2489,968.0,130.0
2490,1296.0,107.0
2491,1456.0,79.0
2492,1317.0,51.0
2493,1087.0,24.0
2494,984.0,-4.0
2495,1261.0,-40.0
2496,1445.0,-76.0
2497,1301.0,-105.0
2498,1026.0,-123.0
2499,875.0,-136.0
2500,1105.0,-148.0
2501,1359.0,-159.0
2502,1284.0,-166.0
2503,1051.0,-166.0
2504,843.0,-164.0
2505,1068.0,-165.0
2506,1319.0,-166.0
2507,1204.0,-160.0
2508,938.0,-144.0
2509,797.0,-124.0
2510,1143.0,-107.0
2511,1452.0,-96.0
2512,1336.0,-88.0
2513,1058.0,-81.0
2514,846.0,-75.0
2515,1159.0,-73.0
2516,1424.0,-72.0
2517,1356.0,-66.0
2518,1105.0,-54.0
2519,905.0,-41.0
2520,1181.0,-36.0
2521,1408.0,-38.0
2522,1375.0,-38.0
2523,1139.0,-30.0
2524,929.0,-13.0
2525,1220.0,7.0
2526,1508.0,30.0
2527,1449.0,54.0
2528,1033.0,100.0
2529,1277.0,110.0
2530,1655.0,111.0
2531,1644.0,110.0
2532,1252.0,114.0
2533,1014.0,119.0
2534,1307.0,121.0
2535,1620.0,116.0
2536,1612.0,112.0
2537,1439.0,111.0
2538,1190.0,114.0
2539,1343.0,117.0
2540,1710.0,119.0
2541,1729.0,126.0
2542,1505.0,141.0
2543,1208.0,160.0
2544,1440.0,172.0
2545,1759.0,175.0
2546,1683.0,172.0
2547,1441.0,167.0
2548,1177.0,160.0
2549,1377.0,151.0
2550,1760.0,138.0
2551,1455.0,132.0
2552,1179.0,140.0
2553,1346.0,144.0
2554,1725.0,143.0
2555,1810.0,138.0
2556,1510.0,135.0
2557,1119.0,132.0
2558,1266.0,122.0
2559,1606.0,105.0
2560,1616.0,84.0
2561,1401.0,68.0
2562,1046.0,54.0
2563,1653.0,19.0
2564,1770.0,2.0
2565,1575.0,-6.0
2566,1337.0,-8.0
2567,1545.0,-10.0
2568,2038.0,-17.0
2569,1941.0,-24.0
2570,1648.0,-31.0
2571,1645.0,133.0
2572,1818.0,130.0
2573,1627.0,82.0
2574,1298.0,-8.0
2575,1296.0,-134.0
2576,1662.0,-273.0
2577,1823.0,-391.0
2578,1631.0,-456.0
2579,1457.0,-456.0
2580,1454.0,-400.0
2581,1751.0,-312.0
2582,1913.0,-213.0
2583,1834.0,-118.0
2584,1571.0,-35.0
2585,2017.0,115.0
2586,1907.0,156.0
2587,1654.0,198.0
2588,1508.0,230.0
2589,1945.0,242.0
2590,2151.0,236.0
2591,1909.0,218.0
2592,1599.0,195.0
2593,1512.0,171.0
2594,1884.0,146.0
2595,2268.0,124.0
2596,2132.0,111.0
2597,1787.0,108.0
2598,1606.0,109.0
2599,1981.0,107.0
2600,2288.0,102.0
2601,2133.0,99.0
2602,1776.0,99.0
2603,1590.0,97.0
2604,1917.0,85.0
2605,2178.0,65.0
2606,2038.0,45.0
2607,1710.0,31.0
2608,1505.0,22.0
2609,1815.0,15.0
2610,2080.0,12.0
2611,1960.0,15.0
2612,1631.0,26.0
2613,1326.0,36.0
2614,1556.0,35.0
2615,1849.0,23.0
2616,1791.0,7.0
2617,1471.0,-7.0
2618,1200.0,-22.0
2619,1415.0,-42.0
2620,1692.0,-68.0
2621,1517.0,-92.0
2622,1174.0,-111.0
2623,939.0,-127.0
2624,1172.0,-147.0
2625,1440.0,-172.0
2626,1315.0,-197.0
2627,969.0,-218.0
2628,585.0,-237.0
2629,863.0,-259.0
2630,960.0,-301.0
2631,616.0,-303.0
2632,759.0,-309.0
2633,1019.0,-323.0
2634,1009.0,-339.0
2635,850.0,-351.0
2636,584.0,-359.0
2637,820.0,-370.0
2638,1083.0,-383.0
2639,1062.0,-394.0
2640,767.0,-396.0
2641,529.0,-388.0
2642,745.0,-376.0
2643,1083.0,-359.0
2644,959.0,-335.0
2645,800.0,-303.0
2646,519.0,-270.0
2647,569.0,-244.0
2648,931.0,-225.0
2649,1011.0,-206.0
2650,851.0,-178.0
2651,520.0,-141.0
2652,1215.0,-32.0
2653,853.0,-4.0
2654,381.0,18.0
2655,458.0,33.0
2656,932.0,40.0
2657,1084.0,45.0
2658,915.0,53.0
2659,541.0,64.0
2660,569.0,72.0
2661,1004.0,77.0
2662,1112.0,87.0
2663,920.0,111.0
2664,662.0,146.0
2665,817.0,181.0
2666,1190.0,205.0
2667,1189.0,213.0
2668,882.0,211.0
2669,575.0,201.0
2670,673.0,184.0
2671,1118.0,166.0
2672,1192.0,156.0
2673,1058.0,162.0
2674,731.0,181.0
2675,653.0,202.0
2676,1091.0,216.0
2677,1297.0,227.0
2678,1114.0,242.0
2679,727.0,263.0
2680,696.0,282.0
2681,1066.0,292.0
2682,1252.0,294.0
2683,1078.0,291.0
2684,738.0,286.0
2685,643.0,276.0
2686,1083.0,262.0
2687,1211.0,250.0
2688,1146.0,246.0
2689,805.0,250.0
2690,687.0,253.0
2691,1100.0,247.0
2692,1335.0,235.0
2693,1240.0,224.0
2694,952.0,218.0
2695,870.0,213.0
2696,1276.0,203.0
2697,1519.0,189.0
2698,1469.0,177.0
2699,1199.0,171.0
2700,1046.0,165.0
2701,1533.0,155.0
2702,1935.0,144.0
2703,1961.0,138.0
2704,1691.0,140.0
2705,1482.0,146.0
2706,1662.0,152.0
2707,1645.0,157.0
2708,1308.0,170.0
2709,839.0,191.0
2710,656.0,216.0
2711,1147.0,237.0
2712,1492.0,254.0
2713,1493.0,272.0
2714,1339.0,299.0
2715,1262.0,336.0
2716,1684.0,378.0
2717,2031.0,422.0
2718,1888.0,464.0
2719,1617.0,491.0
2720,1468.0,479.0
2721,1734.0,411.0
2722,1993.0,291.0
2723,1971.0,138.0
2724,1762.0,-15.0
2725,1572.0,-146.0
2726,1779.0,-234.0
2727,2059.0,-269.0
2728,1983.0,-248.0
2729,1743.0,-183.0
2730,1415.0,-100.0
2731,1723.0,-22.0
2732,2089.0,38.0
2733,1739.0,123.0
2734,1446.0,154.0
2735,1680.0,178.0
2736,2095.0,193.0
2737,2071.0,203.0
2738,1692.0,207.0
2739,1384.0,197.0
2740,1694.0,167.0
2741,2114.0,116.0
2742,2082.0,54.0
2743,1856.0,-4.0
2744,1531.0,-56.0
2745,1741.0,-102.0
2746,2143.0,-140.0
2747,2104.0,-165.0
2748,1876.0,-175.0
2749,1602.0,-178.0
2750,1839.0,-184.0
2751,2144.0,-197.0
2752,2156.0,-210.0
2753,1903.0,-218.0
2754,1611.0,-219.0
2755,2095.0,-209.0
2756,1870.0,-195.0
2757,1601.0,-179.0
2758,1694.0,-169.0
2759,2023.0,-168.0
2760,2044.0,-170.0
2761,1819.0,-168.0
2762,1431.0,-162.0
2763,1554.0,-158.0
2764,1916.0,-161.0
2765,1987.0,-168.0
2766,1722.0,-175.0
2767,1360.0,-184.0
2768,1440.0,-199.0
2769,1810.0,-219.0
2770,1874.0,-238.0
2771,1584.0,-249.0
2772,1295.0,-255.0
2773,1364.0,-262.0
2774,1477.0,-364.0
2775,1127.0,-362.0
2776,1627.0,-353.0
2777,1427.0,-339.0
2778,1088.0,-315.0
2779,1092.0,-287.0
2780,1552.0,-261.0
2781,1711.0,-237.0
2782,1575.0,-211.0
2783,1267.0,-185.0
2784,1280.0,-166.0
2785,1655.0,-158.0
2786,1752.0,-161.0
2787,1575.0,-164.0
2788,1208.0,-167.0
2789,1144.0,-171.0
2790,1497.0,-177.0
2791,1671.0,-181.0
2792,1625.0,-174.0
2793,1283.0,-155.0
2794,1134.0,-127.0
2795,1464.0,-96.0
2796,1732.0,-61.0
2797,1723.0,-19.0
2798,1468.0,95.0
2799,1729.0,107.0
2800,1621.0,110.0
2801,1295.0,109.0
2802,1237.0,104.0
2803,1652.0,94.0
2804,1851.0,83.0
2805,1730.0,78.0
2806,1415.0,82.0
2807,1278.0,90.0
2808,1699.0,96.0
2809,1938.0,100.0
2810,1788.0,106.0
2811,1442.0,116.0
2812,1268.0,125.0
2813,1615.0,127.0
2814,1907.0,126.0
2815,1747.0,128.0
2816,1354.0,139.0
2817,1155.0,157.0
2818,1446.0,174.0
2819,1771.0,188.0
2820,1160.0,232.0
2821,1340.0,234.0
2822,1687.0,229.0
2823,1659.0,223.0
2824,1455.0,221.0
2825,1333.0,216.0
2826,1686.0,202.0
2827,1948.0,177.0
2828,1807.0,148.0
2829,1553.0,122.0
2830,1356.0,100.0
2831,1699.0,78.0
2832,2136.0,59.0
2833,1985.0,45.0
2834,1805.0,39.0
2835,1693.0,35.0
2836,2101.0,30.0
2837,2421.0,26.0
2838,2351.0,32.0
2839,1914.0,57.0
2840,1308.0,95.0
2841,1204.0,134.0
2842,1355.0,169.0
2843,1263.0,196.0
2844,1140.0,219.0
2845,989.0,236.0
2846,1360.0,247.0
2847,1796.0,262.0
2848,1684.0,290.0
2849,1519.0,337.0
2850,1255.0,395.0
2851,1427.0,441.0
2852,1842.0,456.0
2853,1908.0,426.0
2854,1651.0,345.0
2855,1258.0,211.0
2856,1405.0,39.0
2857,1803.0,-143.0
2858,1808.0,-298.0
2859,1622.0,-393.0
2860,1239.0,-421.0
2861,1431.0,-395.0
2862,1849.0,-337.0
2863,1906.0,-267.0
2864,1743.0,-197.0
2865,1904.0,-48.0
2866,1965.0,-6.0
2867,1728.0,41.0
2868,1388.0,90.0
2869,1455.0,125.0
2870,1866.0,138.0
2871,1960.0,133.0
2872,1816.0,119.0
2873,1497.0,104.0
2874,1455.0,89.0
2875,1817.0,76.0
2876,1954.0,71.0
2877,1813.0,77.0
2878,1453.0,91.0
2879,1500.0,101.0
2880,1901.0,101.0
2881,2040.0,93.0
2882,1831.0,84.0
2883,1452.0,78.0
2884,1470.0,72.0
2885,1919.0,65.0
2886,2065.0,58.0
2887,1915.0,55.0
2888,1492.0,55.0
2889,1505.0,50.0
2890,1866.0,37.0
2891,1925.0,21.0
2892,1735.0,11.0
2893,1360.0,11.0
2894,1266.0,15.0
2895,1576.0,17.0
2896,1722.0,17.0
2897,1467.0,19.0
2898,1058.0,24.0
2899,839.0,26.0
2900,1120.0,24.0
2901,1299.0,20.0
2902,1127.0,19.0
2903,683.0,21.0
2904,537.0,16.0
2905,805.0,-2.0
2906,988.0,-33.0
2907,840.0,-68.0
2908,400.0,-102.0
2909,290.0,-139.0
2910,718.0,-183.0
2911,975.0,-232.0
2912,755.0,-283.0
2913,410.0,-331.0
2914,283.0,-380.0
2915,554.0,-431.0
2916,867.0,-479.0
2917,766.0,-515.0
2918,439.0,-534.0
2919,293.0,-543.0
2920,667.0,-547.0
2921,863.0,-547.0
2922,716.0,-535.0
2923,271.0,-463.0
2924,573.0,-415.0
2925,851.0,-364.0
2926,766.0,-308.0
2927,415.0,-249.0
2928,214.0,-193.0
2929,624.0,-145.0
2930,895.0,-104.0
2931,291.0,198.0
2932,594.0,205.0
2933,921.0,206.0
2934,895.0,207.0
2935,622.0,215.0
2936,386.0,230.0
2937,640.0,246.0
2938,909.0,260.0
2939,922.0,274.0
2940,781.0,287.0
2941,490.0,293.0
2942,732.0,286.0
2943,1120.0,268.0
2944,1095.0,252.0
2945,780.0,247.0
2946,464.0,256.0
2947,659.0,270.0
2948,997.0,283.0
2949,932.0,295.0
2950,692.0,306.0
2951,337.0,314.0
2952,537.0,315.0
2953,976.0,312.0
2954,1002.0,314.0
2955,696.0,328.0
2956,468.0,348.0
2957,637.0,365.0
2958,1022.0,371.0
2959,984.0,364.0
2960,779.0,349.0
2961,479.0,323.0
2962,598.0,285.0
2963,975.0,236.0
2964,1048.0,188.0
2965,813.0,150.0
2966,504.0,124.0
2967,630.0,104.0
2968,1058.0,89.0
2969,1118.0,82.0
2970,952.0,86.0
2971,596.0,96.0
2972,791.0,105.0
2973,1356.0,107.0
2974,1507.0,106.0
2975,1412.0,109.0
2976,1165.0,113.0
2977,1179.0,115.0
2978,1307.0,111.0
2979,1013.0,106.0
2980,605.0,106.0
2981,199.0,110.0
2982,308.0,111.0
2983,890.0,107.0
2984,1161.0,104.0
2985,1113.0,114.0
2986,834.0,140.0
2987,884.0,181.0
2988,1235.0,235.0
2989,1402.0,296.0
2990,1410.0,352.0
2991,1142.0,381.0
2992,1159.0,356.0
2993,1539.0,266.0
2994,1599.0,122.0
2995,1403.0,-42.0
2996,1065.0,-191.0
2997,1143.0,-298.0
2998,1545.0,-346.0
2999,1633.0,-333.0
3000,1461.0,-270.0
3001,1169.0,-182.0
3002,1407.0,145.0
3003,1591.0,89.0
3004,1405.0,37.0
3005,1064.0,-6.0
3006,1017.0,-49.0
3007,1405.0,-96.0
3008,1605.0,-145.0
3009,1537.0,-186.0
3010,1227.0,-214.0
3011,1116.0,-226.0
3012,1476.0,-227.0
3013,1671.0,-216.0
3014,1518.0,-196.0
3015,1298.0,-172.0
3016,1579.0,-217.0
3017,1215.0,-240.0
3018,1028.0,-253.0
3019,1300.0,-255.0
3020,1604.0,-247.0
3021,1469.0,-228.0
3022,1088.0,-205.0
3023,805.0,-187.0
3024,1028.0,-180.0
3025,1275.0,-183.0
3026,1088.0,-185.0
3027,790.0,-180.0
3028,665.0,-173.0
3029,1164.0,-182.0
3030,878.0,-194.0
3031,575.0,-211.0
3032,752.0,-238.0
3033,1009.0,-273.0
3034,934.0,-310.0
3035,692.0,-346.0
3036,333.0,-385.0
3037,607.0,-431.0
3038,1048.0,-478.0
3039,1051.0,-514.0
3040,784.0,-530.0
3041,526.0,-524.0
3042,796.0,-504.0
3043,1215.0,-477.0
3044,1106.0,-447.0
3045,810.0,-419.0
3046,490.0,-398.0
3047,710.0,-394.0
3048,1147.0,-400.0
3049,1164.0,-407.0
3050,1293.0,-304.0
3051,1336.0,-254.0
3052,1132.0,-194.0
3053,767.0,-133.0
3054,951.0,-84.0
3055,1402.0,-50.0
3056,1416.0,-27.0
3057,1248.0,-6.0
3058,909.0,12.0
3059,1060.0,28.0
3060,1411.0,40.0
3061,1378.0,56.0
3062,1194.0,81.0
3063,932.0,112.0
3064,1124.0,140.0
3065,1385.0,162.0
3066,1393.0,181.0
3067,1231.0,202.0
3068,913.0,226.0
3069,1043.0,246.0
3070,1411.0,259.0
3071,1430.0,269.0
3072,1207.0,278.0
3073,979.0,284.0
3074,1080.0,280.0
3075,1502.0,265.0
3076,1620.0,243.0
3077,1432.0,223.0
3078,1032.0,206.0
3079,1098.0,188.0
3080,1457.0,168.0
3081,1515.0,148.0
3082,1317.0,133.0
3083,943.0,122.0
3084,1002.0,110.0
3085,1415.0,96.0
3086,1451.0,86.0
3087,1247.0,87.0
3088,809.0,100.0
3089,845.0,118.0
3090,1276.0,134.0
3091,1454.0,148.0
3092,1223.0,161.0
3093,847.0,167.0
3094,828.0,159.0
3095,1186.0,137.0
3096,1319.0,107.0
3097,1144.0,80.0
3098,827.0,59.0
3099,844.0,38.0
3100,1280.0,13.0
3101,1434.0,-15.0
3102,1232.0,-40.0
3103,837.0,-60.0
3104,825.0,-76.0
3105,1235.0,-92.0
3106,1374.0,-102.0
3107,1260.0,-103.0
3108,953.0,-95.0
3109,891.0,-89.0
3110,1298.0,-89.0
3111,1552.0,-92.0
3112,1652.0,-87.0
3113,1001.0,72.0
3114,1440.0,113.0
3115,1827.0,164.0
3116,1795.0,224.0
3117,1536.0,283.0
3118,1410.0,317.0
3119,1751.0,307.0
3120,2030.0,243.0
3121,1855.0,139.0
3122,1584.0,15.0
3123,1532.0,-106.0
3124,1890.0,-201.0
3125,2168.0,-252.0
3126,2072.0,-243.0
3127,1807.0,12.0
3128,2194.0,106.0
3129,2093.0,189.0
3130,1863.0,263.0
3131,1615.0,322.0
3132,1918.0,363.0
3133,2215.0,389.0
3134,2067.0,406.0
3135,1542.0,37.0
3136,1763.0,26.0
3137,2144.0,11.0
3138,2054.0,0.0
3139,1797.0,-2.0
3140,1479.0,-2.0
3141,1740.0,-5.0
3142,2118.0,-14.0
3143,2149.0,-28.0
3144,1868.0,-45.0
3145,1488.0,-67.0
3146,1733.0,-98.0
3147,2172.0,-133.0
3148,2139.0,-164.0
3149,1832.0,-186.0
3150,1377.0,-202.0
3151,1525.0,-219.0
3152,1939.0,-239.0
3153,1928.0,-255.0
3154,1597.0,-260.0
3155,1249.0,-255.0
3156,1412.0,-247.0
3157,1766.0,-237.0
3158,1754.0,-223.0
3159,1449.0,-202.0
3160,1130.0,-178.0
3161,1605.0,-164.0
3162,1330.0,-174.0
3163,942.0,-189.0
3164,1051.0,-214.0
3165,1505.0,-248.0
3166,1531.0,-280.0
3167,1264.0,-304.0
3168,913.0,-319.0
3169,987.0,-332.0
3170,1432.0,-346.0
3171,1544.0,-357.0
3172,1387.0,-360.0
3173,1087.0,-356.0
3174,1210.0,-352.0
3175,1717.0,-352.0
3176,1805.0,-351.0
3177,1619.0,-342.0
3178,1288.0,-327.0
3179,1285.0,-312.0
3180,1730.0,-299.0
3181,1891.0,-284.0
3182,1776.0,-261.0
3183,1449.0,-198.0
3184,1855.0,-165.0
3185,1928.0,-126.0
3186,1669.0,-72.0
3187,1266.0,-5.0
3188,1300.0,64.0
3189,1795.0,126.0
3190,1998.0,177.0
3191,1736.0,219.0
3192,1255.0,253.0
3193,1134.0,274.0
3194,1605.0,285.0
3195,1775.0,291.0
3196,1568.0,300.0
3197,1230.0,310.0
3198,1190.0,309.0
3199,1458.0,290.0
3200,1599.0,255.0
3201,1381.0,216.0
3202,939.0,181.0
3203,948.0,150.0
3204,1296.0,122.0
3205,1535.0,97.0
3206,1027.0,62.0
3207,877.0,40.0
3208,1233.0,10.0
3209,1526.0,-19.0
3210,1443.0,-39.0
3211,1137.0,-47.0
3212,947.0,-52.0
3213,1299.0,-65.0
3214,1552.0,-85.0
3215,1360.0,-106.0
3216,1014.0,-121.0
3217,833.0,-130.0
3218,1199.0,-133.0
3219,1504.0,-128.0
3220,1348.0,-110.0
3221,1114.0,-82.0
3222,933.0,-52.0
3223,1251.0,-26.0
3224,1532.0,-3.0
3225,1440.0,22.0
3226,1177.0,54.0
3227,929.0,83.0
3228,1215.0,101.0
3229,1489.0,105.0
3230,1536.0,101.0
3231,1092.0,96.0
3232,874.0,89.0
3233,1202.0,82.0
3234,1494.0,78.0
3235,1323.0,83.0
3236,959.0,98.0
3237,761.0,118.0
3238,1111.0,132.0
3239,1412.0,138.0
3240,1396.0,142.0
3241,1036.0,153.0
3242,1348.0,154.0
3243,1635.0,149.0
3244,1539.0,145.0
3245,1160.0,143.0
3246,592.0,138.0
3247,515.0,121.0
3248,692.0,95.0
3249,632.0,66.0
3250,477.0,43.0
3251,376.0,29.0
3252,747.0,25.0
3253,1166.0,32.0
3254,648.0,161.0
3255,861.0,205.0
3256,1279.0,219.0
3257,1301.0,195.0
3258,1107.0,129.0
3259,695.0,25.0
3260,839.0,-105.0
3261,1157.0,-236.0
3262,591.0,248.0
3263,637.0,260.0
3264,1101.0,250.0
3265,1180.0,222.0
3266,947.0,184.0
3267,667.0,143.0
3268,738.0,103.0
3269,1221.0,65.0
3270,1336.0,35.0
3271,1077.0,19.0
3272,697.0,13.0
3273,788.0,11.0
3274,1171.0,7.0
3275,1247.0,6.0
3276,1082.0,12.0
3277,717.0,39.0
3278,1177.0,51.0
3279,1207.0,64.0
3280,912.0,84.0
3281,630.0,110.0
3282,744.0,133.0
3283,1103.0,149.0
3284,1176.0,158.0
3285,961.0,165.0
3286,663.0,168.0
3287,643.0,163.0
3288,970.0,148.0
3289,1170.0,129.0
3290,961.0,113.0
3291,557.0,101.0
3292,466.0,86.0
3293,919.0,64.0
3294,1126.0,39.0
3295,992.0,19.0
3296,577.0,6.0
3297,1199.0,-69.0
3298,1083.0,-67.0
3299,762.0,-58.0
3300,649.0,-51.0
3301,1046.0,-51.0
3302,1360.0,-57.0
3303,1234.0,-60.0
3304,950.0,-58.0
3305,809.0,-54.0
3306,1225.0,-54.0
3307,1472.0,-55.0
3308,1341.0,-48.0
3309,1095.0,-31.0
3310,851.0,-8.0
3311,1121.0,14.0
3312,1359.0,36.0
3313,1348.0,62.0
3314,1080.0,91.0
3315,820.0,118.0
3316,1136.0,137.0
3317,1455.0,149.0
3318,1340.0,162.0
3319,1001.0,179.0
3320,725.0,194.0
3321,1040.0,200.0
3322,1361.0,194.0
3323,1240.0,179.0
3324,868.0,160.0
3325,530.0,134.0
3326,832.0,99.0
3327,1210.0,61.0
3328,1126.0,28.0
3329,787.0,7.0
3330,445.0,-5.0
3331,716.0,-20.0
3332,1149.0,-39.0
3333,1092.0,-58.0
3334,693.0,-76.0
3335,685.0,-116.0
3336,1068.0,-145.0
3337,1033.0,-171.0
3338,744.0,-189.0
3339,504.0,-202.0
3340,683.0,-217.0
3341,987.0,-234.0
3342,1024.0,-245.0
3343,830.0,-246.0
3344,566.0,-239.0
3345,719.0,-232.0
3346,1084.0,-227.0
3347,1041.0,-219.0
3348,843.0,-203.0
3349,461.0,-183.0
3350,731.0,-164.0
3351,1162.0,-150.0
3352,1156.0,-137.0
3353,830.0,-119.0
3354,553.0,-100.0
3355,763.0,-85.0
3356,1188.0,-74.0
3357,599.0,-25.0
3358,747.0,-11.0
3359,1218.0,-6.0
3360,1290.0,-5.0
3361,1005.0,-1.0
3362,748.0,4.0
3363,960.0,9.0
3364,1414.0,11.0
3365,1465.0,14.0
3366,1264.0,24.0
3367,856.0,36.0
3368,888.0,43.0
3369,1280.0,43.0
3370,1504.0,40.0
3371,1401.0,42.0
3372,1207.0,47.0
3373,1320.0,51.0
3374,1834.0,52.0
3375,1869.0,57.0
3376,1423.0,72.0
3377,712.0,98.0
3378,551.0,123.0
3379,856.0,140.0
3380,1031.0,146.0
3381,997.0,145.0
3382,859.0,136.0
3383,1035.0,122.0
3384,1491.0,108.0
3385,1661.0,111.0
3386,1517.0,142.0
3387,1218.0,192.0
3388,1189.0,240.0
3389,1690.0,256.0
3390,1902.0,222.0
3391,1734.0,135.0
3392,1328.0,8.0
3393,1280.0,-140.0
3394,1667.0,-276.0
3395,1812.0,-365.0
3396,1728.0,-383.0
3397,1392.0,-331.0
3398,1341.0,-235.0
3399,1639.0,-128.0
3400,1872.0,-33.0
3401,1760.0,41.0
3402,1389.0,96.0
3403,1815.0,186.0
3404,1722.0,211.0
3405,1432.0,233.0
3406,1295.0,238.0
3407,1608.0,219.0
3408,1927.0,178.0
3409,1702.0,129.0
3410,1416.0,82.0
3411,1365.0,40.0
3412,1763.0,0.0
3413,1910.0,-39.0
3414,1776.0,-72.0
3415,1485.0,-97.0
3416,1218.0,-117.0
3417,1597.0,-135.0
3418,1976.0,-148.0
3419,1863.0,-148.0
3420,1516.0,-135.0
3421,1311.0,-118.0
3422,1673.0,-105.0
3423,1929.0,-98.0
3424,1782.0,-91.0
3425,1524.0,-80.0
3426,1300.0,-69.0
3427,1547.0,-64.0
3428,1761.0,-66.0
3429,1728.0,-69.0
3430,1309.0,-71.0
3431,980.0,-74.0
3432,1191.0,-81.0
3433,1520.0,-88.0
3434,1371.0,-90.0
3435,1072.0,-83.0
3436,741.0,-76.0
3437,948.0,-76.0
3438,1320.0,-85.0
3439,1208.0,-97.0
3440,855.0,-107.0
3441,554.0,-118.0
3442,823.0,-137.0
3443,1188.0,-164.0
3444,1153.0,-196.0
3445,968.0,-230.0
3446,1489.0,181.0
3447,1581.0,164.0
3448,1468.0,158.0
3449,1178.0,166.0
3450,1242.0,184.0
3451,1687.0,205.0
3452,1723.0,226.0
3453,1529.0,247.0
3454,1161.0,258.0
3455,1320.0,253.0
3456,1706.0,230.0
3457,1743.0,199.0
3458,1585.0,173.0
3459,1181.0,156.0
3460,1230.0,147.0
3461,1622.0,143.0
3462,1629.0,148.0
3463,1356.0,162.0
3464,1084.0,181.0
3465,1184.0,197.0
3466,1584.0,202.0
3467,1589.0,201.0
3468,1322.0,201.0
3469,964.0,202.0
3470,1019.0,201.0
3471,1362.0,193.0
3472,1513.0,183.0
3473,1359.0,171.0
3474,1064.0,155.0
3475,1043.0,128.0
3476,1370.0,89.0
3477,1536.0,48.0
3478,1358.0,15.0
3479,1016.0,-5.0
3480,979.0,-21.0
3481,1471.0,-38.0
3482,1670.0,-54.0
3483,1425.0,-68.0
3484,1160.0,-78.0
3485,1266.0,-88.0
3486,1716.0,-96.0
3487,1879.0,-96.0
3488,1715.0,-83.0
3489,1427.0,-59.0
3490,1301.0,-36.0
3491,1771.0,-21.0
3492,2055.0,-13.0
3493,1855.0,-6.0
3494,1540.0,4.0
3495,1392.0,17.0
3496,1783.0,32.0
3497,2012.0,55.0
3498,1819.0,89.0
3499,1477.0,134.0
3500,1406.0,179.0
3501,1840.0,215.0
3502,2199.0,242.0
3503,2254.0,263.0
3504,2102.0,280.0
3505,2113.0,290.0
3506,2419.0,289.0
3507,2419.0,280.0
3508,2417.0,271.0
3509,2045.0,260.0
3510,1691.0,242.0
3511,1848.0,209.0
3512,2048.0,167.0
3513,1881.0,127.0
3514,1631.0,102.0
3515,1498.0,98.0
3516,1868.0,117.0
3517,2157.0,162.0
3518,2052.0,232.0
3519,1748.0,313.0
3520,1873.0,422.0
3521,2236.0,415.0
3522,2177.0,363.0
3523,1883.0,275.0
3524,1666.0,162.0
3525,1975.0,35.0
3526,2280.0,-84.0
3527,2200.0,-180.0
3528,1858.0,-242.0
3529,1570.0,-273.0
3530,1914.0,-284.0
3531,2329.0,-284.0
3532,2396.0,-275.0
3533,2123.0,-256.0
3534,1865.0,-234.0
3535,2091.0,-211.0
3536,2415.0,-186.0
3537,2418.0,-153.0
3538,2267.0,-111.0
3539,2085.0,-73.0
3540,2363.0,-49.0
3541,2407.0,-64.0
3542,2199.0,-72.0
3543,2399.0,-75.0
3544,2424.0,-70.0
3545,2420.0,-54.0
3546,2385.0,-29.0
3547,2116.0,-2.0
3548,2278.0,17.0
3549,2425.0,27.0
3550,2418.0,32.0
3551,2415.0,39.0
3552,2267.0,47.0
3553,2415.0,53.0
3554,2424.0,54.0
3555,2424.0,51.0
3556,2419.0,45.0
3557,2426.0,33.0
3558,2428.0,14.0
3559,2419.0,-12.0
3560,2311.0,-117.0
3561,2337.0,-118.0
3562,2411.0,-127.0
3563,2078.0,-131.0
3564,2122.0,-137.0
3565,2424.0,-142.0
3566,2424.0,-147.0
3567,2281.0,-151.0
3568,1980.0,-155.0
3569,2012.0,-159.0
3570,2319.0,-165.0
3571,2362.0,-172.0
3572,2159.0,-179.0
3573,1830.0,-184.0
3574,1811.0,-191.0
3575,2139.0,-202.0
3576,2243.0,-214.0
3577,2057.0,-226.0
3578,1717.0,-235.0
3579,1602.0,-245.0
3580,1959.0,-255.0
3581,2199.0,-264.0
3582,1426.0,-302.0
3583,1768.0,-293.0
3584,1922.0,-281.0
3585,1676.0,-261.0
3586,1385.0,-233.0
3587,1244.0,-204.0
3588,1690.0,-182.0
3589,1920.0,-166.0
3590,1800.0,-152.0
3591,1457.0,-138.0
3592,1276.0,-127.0
3593,1627.0,-119.0
3594,1847.0,-113.0
3595,1754.0,-102.0
3596,1425.0,-76.0
3597,1752.0,-83.0
3598,1634.0,-89.0
3599,1370.0,-85.0
3600,1226.0,-73.0
3601,1555.0,-55.0
3602,1809.0,-31.0
3603,1717.0,0.0
3604,1391.0,36.0
3605,1119.0,68.0
3606,1408.0,86.0
3607,1695.0,92.0
3608,1625.0,92.0
3609,1265.0,92.0
3610,1008.0,92.0
3611,1306.0,89.0
3612,1602.0,87.0
3613,1600.0,95.0
3614,1273.0,115.0
3615,928.0,144.0
3616,1224.0,169.0
3617,1626.0,188.0
3618,1265.0,206.0
3619,996.0,205.0
3620,1221.0,193.0
3621,1607.0,175.0
3622,1604.0,161.0
3623,1259.0,156.0
3624,970.0,157.0
3625,1267.0,158.0
3626,1630.0,155.0
3627,1530.0,154.0
3628,1334.0,159.0
3629,1007.0,168.0
3630,1288.0,175.0
3631,1880.0,181.0
3632,2019.0,190.0
3633,1824.0,207.0
3634,1459.0,227.0
3635,1410.0,243.0
3636,1554.0,252.0
3637,1351.0,259.0
3638,964.0,269.0
3639,558.0,278.0
3640,713.0,282.0
3641,1315.0,279.0
3642,1480.0,279.0
3643,1352.0,295.0
3644,1062.0,330.0
3645,1247.0,381.0
3646,1746.0,442.0
3647,1759.0,501.0
3648,1523.0,544.0
3649,1250.0,548.0
3650,1348.0,491.0
3651,1753.0,373.0
3652,1864.0,219.0
3653,1625.0,64.0
3654,1256.0,-56.0
3655,1275.0,-124.0
3656,1676.0,-132.0
3657,1734.0,-82.0
3658,1559.0,9.0
3659,1198.0,116.0
3660,1232.0,210.0
3661,1627.0,276.0
3662,1749.0,317.0
3663,1546.0,346.0
3664,1156.0,370.0
3665,1189.0,389.0
3666,1593.0,402.0
3667,1746.0,407.0
3668,1582.0,405.0
3669,1182.0,391.0
3670,1135.0,358.0
3671,1567.0,309.0
3672,1724.0,252.0
3673,1610.0,202.0
3674,1276.0,163.0
3675,1248.0,132.0
3676,1633.0,105.0
3677,1367.0,52.0
3678,1011.0,41.0
3679,820.0,20.0
3680,1114.0,-15.0
3681,1371.0,-63.0
3682,1277.0,-113.0
3683,961.0,-160.0
3684,824.0,-200.0
3685,1184.0,-234.0
3686,1424.0,-254.0
3687,1306.0,-255.0
3688,1031.0,-238.0
3689,772.0,-213.0
3690,1086.0,-193.0
3691,1375.0,-183.0
3692,1356.0,-181.0
3693,1076.0,-183.0
3694,849.0,-190.0
3695,1120.0,-199.0
3696,1441.0,-205.0
3697,1367.0,-200.0
3698,1157.0,-179.0
3699,891.0,-153.0
3700,1163.0,-130.0
3701,1535.0,-116.0
3702,949.0,-93.0
3703,1185.0,-91.0
3704,1531.0,-87.0
3705,1499.0,-77.0
3706,1241.0,-58.0
3707,884.0,-34.0
3708,1150.0,-16.0
3709,1516.0,-6.0
3710,1395.0,30.0
3711,1034.0,24.0
3712,1198.0,14.0
3713,1588.0,1.0
3714,1641.0,-7.0
3715,1426.0,-7.0
3716,1179.0,1.0
3717,1428.0,12.0
3718,1811.0,20.0
3719,1807.0,29.0
3720,1519.0,39.0
3721,1215.0,49.0
3722,1345.0,52.0
3723,1748.0,46.0
3724,1759.0,36.0
3725,1213.0,25.0
3726,1322.0,19.0
3727,1738.0,15.0
3728,1761.0,17.0
3729,1608.0,33.0
3730,1292.0,57.0
3731,1446.0,79.0
3732,1911.0,91.0
3733,1311.0,-22.0
3734,1387.0,-9.0
3735,1833.0,-2.0
3736,1960.0,0.0
3737,1810.0,0.0
3738,1480.0,-1.0
3739,1544.0,-13.0
3740,1987.0,-38.0
3741,2094.0,-69.0
3742,1898.0,-100.0
3743,1627.0,-127.0
3744,1593.0,-153.0
3745,2001.0,-176.0
3746,2198.0,-188.0
3747,2075.0,-182.0
3748,1854.0,-159.0
3749,1885.0,-129.0
3750,2280.0,-99.0
3751,2417.0,-71.0
3752,2118.0,-40.0
3753,1510.0,-10.0
3754,1197.0,15.0
3755,1386.0,31.0
3756,1488.0,41.0
3757,1396.0,50.0
3758,1240.0,60.0
3759,1195.0,66.0
3760,1582.0,69.0
3761,1902.0,77.0
3762,1842.0,95.0
3763,1503.0,122.0
3764,1365.0,142.0
3765,1676.0,138.0
3766,1959.0,96.0
3767,1855.0,15.0
3768,1556.0,-98.0
3769,1403.0,-233.0
3770,1769.0,-369.0
3771,2035.0,-476.0
3772,1944.0,-530.0
3773,1566.0,-523.0
3774,1354.0,-467.0
3775,1694.0,-387.0
3776,1947.0,-304.0
3777,1893.0,-233.0
3778,1517.0,-177.0
3779,1243.0,-141.0
3780,1571.0,-120.0
3781,1877.0,-104.0
3782,1168.0,-1.0
3783,1444.0,29.0
3784,1688.0,43.0
3785,1606.0,43.0
3786,1429.0,32.0
3787,1214.0,11.0
3788,1389.0,-18.0
3789,1639.0,-52.0
3790,1452.0,-80.0
3791,1146.0,-97.0
3792,873.0,-107.0
3793,1203.0,-117.0
3794,1560.0,-131.0
3795,1529.0,-143.0
3796,1224.0,-153.0
3797,899.0,-160.0
3798,1095.0,-168.0
3799,1393.0,-175.0
3800,1315.0,-173.0
3801,1061.0,-163.0
3802,738.0,-152.0
3803,930.0,-151.0
3804,1009.0,-194.0
3805,575.0,-199.0
3806,694.0,-194.0
3807,1047.0,-181.0
3808,1039.0,-159.0
3809,708.0,-132.0
3810,331.0,-112.0
3811,422.0,-107.0
3812,850.0,-118.0
3813,888.0,-134.0
3814,614.0,-143.0
3815,284.0,-142.0
3816,380.0,-136.0
3817,814.0,-129.0
3818,840.0,-122.0
3819,569.0,-116.0
3820,153.0,-114.0
3821,330.0,-125.0
3822,775.0,-146.0
3823,835.0,-168.0
3824,632.0,-182.0
3825,281.0,-186.0
3826,384.0,-182.0
3827,823.0,-174.0
3828,911.0,-158.0
3829,779.0,-131.0
3830,405.0,-98.0
3831,472.0,-69.0
3832,875.0,-47.0
3833,1071.0,-30.0
3834,903.0,-9.0
3835,1087.0,359.0
3836,1216.0,373.0
3837,968.0,387.0
3838,645.0,399.0
3839,600.0,403.0
3840,996.0,395.0
3841,1180.0,381.0
3842,1020.0,370.0
3843,766.0,367.0
3844,782.0,367.0
3845,1188.0,368.0
3846,1312.0,369.0
3847,1176.0,374.0
3848,785.0,379.0
3849,720.0,377.0
3850,1108.0,362.0
3851,1380.0,338.0
3852,1225.0,315.0
3853,940.0,295.0
3854,850.0,279.0
3855,1186.0,266.0
3856,1453.0,259.0
3857,1309.0,265.0
3858,1038.0,282.0
3859,884.0,298.0
3860,1247.0,304.0
3861,1496.0,299.0
3862,1362.0,289.0
3863,997.0,276.0
3864,785.0,261.0
3865,1185.0,245.0
3866,1450.0,234.0
3867,1339.0,233.0
3868,1033.0,240.0
3869,1713.0,44.0
3870,1693.0,26.0
3871,1456.0,17.0
3872,1608.0,-1.0
3873,1971.0,-19.0
3874,1894.0,-37.0
3875,1672.0,-49.0
3876,1612.0,-58.0
3877,2031.0,-66.0
3878,2412.0,-72.0
3879,2255.0,-67.0
3880,1817.0,-48.0
3881,1289.0,-18.0
3882,1176.0,14.0
3883,1339.0,50.0
3884,1320.0,89.0
3885,1144.0,131.0
3886,1016.0,168.0
3887,1398.0,194.0
3888,1881.0,213.0
3889,1882.0,236.0
3890,1666.0,269.0
3891,1351.0,307.0
3892,1585.0,331.0
3893,1929.0,324.0
3894,1934.0,272.0
3895,1544.0,-158.0
3896,1939.0,-333.0
3897,1872.0,-462.0
3898,1633.0,-517.0
3899,1368.0,-498.0
3900,1438.0,-425.0
3901,1786.0,-329.0
3902,1744.0,-236.0
3903,1534.0,-166.0
3904,1201.0,-128.0
3905,1417.0,-122.0
3906,1829.0,-136.0
3907,1800.0,-151.0
3908,1558.0,-152.0
3909,1197.0,-142.0
3910,1334.0,-130.0
3911,1784.0,-126.0
3912,1872.0,-132.0
3913,1641.0,-147.0
3914,1263.0,-173.0
3915,1332.0,-210.0
3916,1694.0,-253.0
3917,1238.0,-318.0
3918,1335.0,-316.0
3919,1743.0,-311.0
3920,1899.0,-304.0
3921,1709.0,-293.0
3922,1356.0,-279.0
3923,1385.0,-269.0
3924,1846.0,-262.0
3925,1909.0,-256.0
3926,1680.0,-246.0
3927,1279.0,-235.0
3928,1261.0,-231.0
3929,1606.0,-237.0
3930,1643.0,-244.0
3931,1517.0,-244.0
3932,1175.0,-233.0
3933,1181.0,-215.0
3934,1566.0,-194.0
3935,1626.0,-171.0
3936,1369.0,-145.0
3937,976.0,-120.0
3938,935.0,-105.0
3939,1348.0,-105.0
3940,1374.0,-116.0
3941,1131.0,-133.0
3942,702.0,-153.0
3943,559.0,-177.0
3944,952.0,-205.0
3945,1160.0,-229.0
3946,965.0,-241.0
3947,814.0,-244.0
3948,1026.0,-255.0
3949,859.0,-268.0
3950,513.0,-283.0
3951,377.0,-304.0
3952,735.0,-333.0
3953,999.0,-364.0
3954,879.0,-388.0
3955,513.0,-403.0
3956,395.0,-412.0
3957,730.0,-416.0
3958,992.0,-413.0
3959,880.0,-398.0
3960,554.0,-373.0
3961,480.0,-347.0
3962,900.0,-327.0
3963,1092.0,-313.0
3964,822.0,-296.0
3965,396.0,-271.0
3966,142.0,-241.0
3967,538.0,-208.0
3968,896.0,-173.0
3969,784.0,-134.0
3970,491.0,-92.0
3971,243.0,-53.0
3972,557.0,-21.0
3973,848.0,7.0
3974,726.0,40.0
3975,460.0,80.0
3976,214.0,117.0
3977,499.0,139.0
3978,831.0,141.0
3979,686.0,129.0
3980,396.0,111.0
3981,80.0,90.0
3982,322.0,72.0
3983,581.0,66.0
3984,555.0,78.0
3985,372.0,107.0
3986,91.0,138.0
3987,307.0,161.0
3988,659.0,169.0
3989,648.0,172.0
3990,395.0,176.0
3991,88.0,182.0
3992,259.0,187.0
3993,612.0,188.0
3994,693.0,188.0
3995,419.0,187.0
3996,130.0,183.0
3997,336.0,173.0
3998,678.0,161.0
3999,687.0,157.0
4000,476.0,167.0
4001,163.0,189.0
4002,277.0,212.0
4003,701.0,230.0
4004,702.0,245.0
4005,528.0,258.0
4006,539.0,276.0
4007,887.0,280.0
4008,929.0,288.0
4009,653.0,305.0
4010,318.0,326.0
4011,575.0,343.0
4012,1048.0,350.0
4013,1096.0,352.0
4014,901.0,352.0
4015,640.0,351.0
4016,767.0,349.0
4017,1072.0,349.0
4018,1060.0,358.0
4019,926.0,380.0
4020,627.0,410.0
4021,693.0,436.0
4022,1079.0,451.0
4023,1253.0,457.0
4024,1134.0,459.0
4025,856.0,462.0
4026,1264.0,364.0
4027,1115.0,383.0
4028,681.0,393.0
4029,693.0,368.0
4030,1162.0,294.0
4031,1331.0,171.0
4032,1255.0,21.0
4033,986.0,-129.0
4034,939.0,-251.0
4035,1296.0,-321.0
4036,1458.0,-323.0
4037,1349.0,-256.0
4038,1049.0,-145.0
4039,1027.0,-27.0
4040,1397.0,65.0
4041,1570.0,120.0
4042,1487.0,144.0
4043,1184.0,148.0
4044,1135.0,146.0
4045,1526.0,149.0
4046,1728.0,164.0
4047,1601.0,194.0
4048,1315.0,231.0
4049,1177.0,258.0
4050,1622.0,263.0
4051,1875.0,249.0
4052,1764.0,223.0
4053,1322.0,167.0
4054,1720.0,141.0
4055,1988.0,122.0
4056,1864.0,112.0
4057,1565.0,111.0
4058,1405.0,109.0
4059,1747.0,100.0
4060,2032.0,85.0
4061,1878.0,72.0
4062,1506.0,63.0
4063,1339.0,55.0
4064,1704.0,44.0
4065,2045.0,34.0
4066,1949.0,27.0
4067,1623.0,26.0
4068,1368.0,23.0
4069,1668.0,12.0
4070,1968.0,-3.0
4071,1897.0,-20.0
4072,1608.0,-34.0
4073,1320.0,-51.0
4074,1480.0,-76.0
4075,1668.0,-109.0
4076,991.0,-186.0
4077,1231.0,-205.0
4078,1531.0,-223.0
4079,1435.0,-237.0
4080,1112.0,-245.0
4081,878.0,-253.0
4082,1106.0,-270.0
4083,1519.0,-295.0
4084,837.0,-633.0
4085,1069.0,-609.0
4086,1399.0,-585.0
4087,1388.0,-560.0
4088,1162.0,-534.0
4089,846.0,-511.0
4090,988.0,-498.0
4091,1331.0,-493.0
4092,1333.0,-487.0
4093,1124.0,-471.0
4094,884.0,-446.0
4095,1071.0,-416.0
4096,1398.0,-386.0
4097,1463.0,-353.0
4098,1289.0,-317.0
4099,1023.0,-280.0
4100,1065.0,-250.0
4101,1415.0,-229.0
4102,1490.0,-212.0
4103,1343.0,-195.0
4104,1007.0,-180.0
4105,1024.0,-170.0
4106,1353.0,-163.0
4107,1482.0,-153.0
4108,1296.0,-133.0
4109,911.0,-103.0
4110,946.0,-72.0
4111,1328.0,-42.0
4112,1385.0,-16.0
4113,1213.0,9.0
4114,850.0,31.0
4115,864.0,45.0
4116,1230.0,49.0
4117,1310.0,50.0
4118,1156.0,52.0
4119,805.0,56.0
4120,1057.0,-23.0
4121,1268.0,-29.0
4122,1058.0,-32.0
4123,720.0,-27.0
4124,709.0,-20.0
4125,1156.0,-15.0
4126,1369.0,-9.0
4127,1201.0,-1.0
4128,978.0,7.0
4129,825.0,10.0
4130,1116.0,5.0
4131,1284.0,-2.0
4132,1198.0,-4.0
4133,864.0,3.0
4134,686.0,19.0
4135,1405.0,84.0
4136,1099.0,115.0
4137,1163.0,147.0
4138,1650.0,175.0
4139,1954.0,201.0
4140,1779.0,227.0
4141,1178.0,249.0
4142,641.0,259.0
4143,663.0,252.0
4144,847.0,232.0
4145,757.0,212.0
4146,552.0,201.0
4147,544.0,203.0
4148,1043.0,218.0
4149,1452.0,251.0
4150,1416.0,308.0
4151,1194.0,385.0
4152,1028.0,462.0
4153,1327.0,514.0
4154,1628.0,520.0
4155,1514.0,468.0
4156,1272.0,357.0
4157,1080.0,195.0
4158,1383.0,9.0
4159,1713.0,-160.0
4160,1626.0,-270.0
4161,1350.0,-298.0
4162,1151.0,-245.0
4163,1506.0,-139.0
4164,1853.0,-10.0
4165,1756.0,114.0
4166,1500.0,214.0
4167,1261.0,278.0
4168,1564.0,307.0
4169,1928.0,315.0
4170,1834.0,322.0
4171,1973.0,221.0
4172,2012.0,201.0
4173,1746.0,184.0
4174,1386.0,166.0
4175,1521.0,144.0
4176,1943.0,120.0
4177,1944.0,102.0
4178,1663.0,95.0
4179,1394.0,96.0
4180,1592.0,96.0
4181,1887.0,90.0
4182,1855.0,81.0
4183,1579.0,72.0
4184,1175.0,60.0
4185,1211.0,42.0
4186,1576.0,17.0
4187,1593.0,-6.0
4188,1320.0,-25.0
4189,894.0,-42.0
4190,1076.0,-61.0
4191,1482.0,-83.0
4192,1456.0,-104.0
4193,1161.0,-117.0
4194,799.0,-127.0
4195,885.0,-142.0
4196,1290.0,-167.0
4197,1327.0,-203.0
4198,1077.0,-243.0
4199,756.0,-288.0
4200,787.0,-339.0
4201,1096.0,-391.0
4202,1182.0,-432.0
4203,1119.0,-456.0
4204,845.0,-464.0
4205,768.0,-466.0
4206,1107.0,-467.0
4207,1268.0,-468.0
4208,1146.0,-464.0
4209,832.0,-447.0
4210,1241.0,-440.0
4211,1391.0,-429.0
4212,1096.0,-410.0
4213,721.0,-384.0
4214,766.0,-357.0
4215,1232.0,-332.0
4216,1402.0,-306.0
4217,1209.0,-273.0
4218,831.0,-234.0
4219,839.0,-196.0
4220,1261.0,-163.0
4221,1391.0,-132.0
4222,1187.0,-99.0
4223,759.0,-64.0
4224,731.0,-34.0
4225,1216.0,-14.0
4226,1376.0,-1.0
4227,1174.0,9.0
4228,859.0,22.0
4229,834.0,33.0
4230,1162.0,42.0
4231,1335.0,53.0
4232,1202.0,71.0
4233,896.0,93.0
4234,755.0,107.0
4235,1066.0,108.0
4236,1302.0,98.0
4237,1078.0,87.0
4238,705.0,79.0
4239,607.0,75.0
4240,989.0,72.0
4241,1256.0,74.0
4242,1125.0,84.0
4243,844.0,99.0
4244,719.0,111.0
4245,993.0,113.0
4246,1183.0,109.0
4247,1106.0,103.0
4248,757.0,99.0
4249,589.0,90.0
4250,969.0,73.0
4251,1223.0,51.0
4252,1086.0,31.0
4253,833.0,20.0
4254,613.0,16.0
4255,868.0,17.0
4256,1100.0,25.0
4257,998.0,43.0
4258,707.0,65.0
4259,476.0,83.0
4260,776.0,87.0
4261,1039.0,81.0
4262,972.0,73.0
4263,669.0,70.0
4264,466.0,73.0
4265,774.0,78.0
4266,1125.0,84.0
4267,1087.0,92.0
4268,792.0,99.0
4269,578.0,98.0
4270,807.0,83.0
4271,1169.0,59.0
4272,1122.0,36.0
4273,855.0,20.0
4274,638.0,10.0
4275,1059.0,4.0
4276,1587.0,2.0
4277,1671.0,7.0
4278,1324.0,22.0
4279,825.0,42.0
4280,756.0,63.0
4281,333.0,131.0
4282,80.0,153.0
4283,494.0,166.0
4284,1036.0,174.0
4285,1068.0,191.0
4286,1726.0,260.0
4287,1472.0,151.0
4288,1818.0,156.0
4289,2011.0,167.0
4290,1912.0,182.0
4291,1492.0,194.0
4292,1538.0,193.0
4293,1959.0,179.0
4294,2107.0,156.0
4295,1944.0,136.0
4296,1591.0,123.0
4297,1537.0,116.0
4298,1931.0,112.0
4299,2093.0,114.0
4300,1986.0,123.0
4301,1632.0,134.0
4302,1495.0,139.0
4303,1797.0,133.0
4304,1980.0,120.0
4305,1799.0,108.0
4306,1397.0,100.0
4307,1317.0,90.0
4308,1680.0,75.0
4309,1774.0,55.0
4310,1529.0,36.0
4311,1094.0,18.0
4312,1081.0,-3.0
4313,1393.0,-32.0
4314,1526.0,-65.0
4315,1390.0,-96.0
4316,1071.0,-126.0
4317,858.0,-162.0
4318,1230.0,-206.0
4319,1529.0,-256.0
4320,1384.0,-303.0
4321,1049.0,-344.0
4322,933.0,-385.0
4323,1295.0,-429.0
4324,1500.0,-475.0
4325,1370.0,-515.0
4326,1061.0,-547.0
4327,868.0,-574.0
4328,1184.0,-596.0
4329,1459.0,-611.0
4330,1014.0,-597.0
4331,788.0,-574.0
4332,1155.0,-548.0
4333,1455.0,-518.0
4334,1397.0,-480.0
4335,1017.0,-435.0
4336,784.0,-391.0
4337,1105.0,-355.0
4338,1427.0,-328.0
4339,1317.0,-304.0
4340,1101.0,-282.0
4341,919.0,-264.0
4342,1127.0,-253.0
4343,1412.0,-247.0
4344,1266.0,-237.0
4345,976.0,-221.0
4346,736.0,-204.0
4347,996.0,-191.0
4348,1344.0,-182.0
4349,1297.0,-172.0
4350,978.0,-158.0
4351,753.0,-143.0
4352,1079.0,-130.0
4353,1121.0,-73.0
4354,828.0,-51.0
4355,1184.0,-40.0
4356,1503.0,-42.0
4357,1408.0,-52.0
4358,1172.0,-61.0
4359,932.0,-67.0
4360,1129.0,-72.0
4361,1457.0,-71.0
4362,1434.0,-58.0
4363,1199.0,-33.0
4364,880.0,-1.0
4365,1035.0,28.0
4366,1356.0,53.0
4367,1391.0,78.0
4368,1088.0,106.0
4369,784.0,133.0
4370,1017.0,153.0
4371,1316.0,164.0
4372,1281.0,172.0
4373,1060.0,180.0
4374,775.0,185.0
4375,1381.0,155.0
4376,1142.0,141.0
4377,718.0,126.0
4378,923.0,106.0
4379,1369.0,82.0
4380,1398.0,60.0
4381,1143.0,46.0
4382,725.0,38.0
4383,935.0,30.0
4384,1458.0,22.0
4385,1578.0,19.0
4386,1415.0,26.0
4387,1131.0,40.0
4388,1370.0,53.0
4389,1846.0,63.0
4390,1900.0,73.0
4391,1586.0,85.0
4392,979.0,97.0
4393,723.0,102.0
4394,869.0,100.0
4395,911.0,99.0
4396,764.0,107.0
4397,603.0,127.0
4398,727.0,155.0
4399,1266.0,191.0
4400,1462.0,241.0
4401,1304.0,308.0
4402,943.0,383.0
4403,950.0,443.0
4404,1343.0,467.0
4405,1552.0,441.0
4406,1444.0,361.0
4407,1098.0,231.0
4408,1080.0,65.0
4409,1469.0,-107.0
4410,1674.0,-249.0
4411,1471.0,-325.0
4412,1108.0,-325.0
4413,1027.0,-264.0
4414,1463.0,-170.0
4415,1746.0,-68.0
4416,1655.0,20.0
4417,1437.0,86.0
4418,1357.0,125.0
4419,1721.0,146.0
4420,1932.0,164.0
4421,1789.0,194.0
4422,1325.0,275.0
4423,1733.0,298.0
4424,1980.0,300.0
4425,1900.0,286.0
4426,1541.0,264.0
4427,1413.0,241.0
4428,1796.0,224.0
4429,2026.0,220.0
4430,1928.0,236.0
4431,1567.0,266.0
4432,1440.0,295.0
4433,1762.0,308.0
4434,2047.0,304.0
4435,1992.0,289.0
4436,1673.0,270.0
4437,1518.0,247.0
4438,1815.0,224.0
4439,2032.0,204.0
4440,1925.0,191.0
4441,1658.0,184.0
4442,1487.0,174.0
4443,1415.0,15.0
4444,1225.0,10.0
4445,1471.0,-4.0
4446,1625.0,-27.0
4447,1551.0,-50.0
4448,1290.0,-67.0
4449,1042.0,-81.0
4450,1358.0,-96.0
4451,1676.0,-116.0
4452,1623.0,-140.0
4453,1361.0,-169.0
4454,1092.0,-206.0
4455,1312.0,-252.0
4456,1680.0,-301.0
4457,1141.0,-383.0
4458,1326.0,-396.0
4459,1659.0,-408.0
4460,1659.0,-414.0
4461,1311.0,-410.0
4462,1050.0,-396.0
4463,1333.0,-377.0
4464,1706.0,-352.0
4465,1744.0,-320.0
4466,1556.0,-283.0
4467,1260.0,-247.0
4468,1421.0,-221.0
4469,1815.0,-205.0
4470,1890.0,-189.0
4471,1549.0,-170.0
4472,1182.0,-150.0
4473,1360.0,-135.0
4474,1693.0,-128.0
4475,1747.0,-122.0
4476,1531.0,-112.0
4477,1202.0,-96.0
4478,1381.0,-79.0
4479,1815.0,-57.0
4480,1945.0,-28.0
4481,1636.0,8.0
4482,1226.0,45.0
4483,1251.0,71.0
4484,1643.0,79.0
4485,1755.0,73.0
4486,1483.0,61.0
4487,1050.0,44.0
4488,1220.0,21.0
4489,1616.0,-2.0
4490,1630.0,-17.0
4491,1445.0,-15.0
4492,1194.0,0.0
4493,1282.0,18.0
4494,1602.0,30.0
4495,1729.0,35.0
4496,1540.0,33.0
4497,1164.0,21.0
4498,1128.0,-4.0
4499,1470.0,-38.0
4500,1575.0,-71.0
4501,1397.0,-93.0
4502,1104.0,-100.0
4503,1122.0,-101.0
4504,1491.0,-99.0
4505,1628.0,-92.0
4506,1496.0,-76.0
4507,1098.0,-55.0
4508,1076.0,-36.0
4509,1511.0,-23.0
4510,1469.0,0.0
4511,1141.0,9.0
4512,1109.0,9.0
4513,1636.0,-1.0
4514,2007.0,-15.0
4515,1902.0,-25.0
4516,1474.0,-26.0
4517,1196.0,-24.0
4518,1346.0,-23.0
4519,1324.0,-21.0
4520,1029.0,-15.0
4521,612.0,-3.0
4522,600.0,8.0
4523,1083.0,18.0
4524,1450.0,35.0
4525,1390.0,70.0
4526,1081.0,127.0
4527,997.0,198.0
4528,1414.0,268.0
4529,1700.0,322.0
4530,1636.0,347.0
4531,1271.0,328.0
4532,1085.0,253.0
4533,1351.0,127.0
4534,1541.0,193.0
4535,1302.0,213.0
4536,1805.0,255.0
4537,1568.0,267.0
4538,1414.0,271.0
4539,1652.0,260.0
4540,1965.0,234.0
4541,1928.0,202.0
4542,1643.0,174.0
4543,1341.0,154.0
4544,1601.0,140.0
4545,2016.0,135.0
4546,2041.0,141.0
4547,1723.0,155.0
4548,1414.0,168.0
4549,1675.0,171.0
4550,2061.0,163.0
4551,1976.0,154.0
4552,1703.0,149.0
4553,1437.0,149.0
4554,1659.0,145.0
4555,1992.0,137.0
4556,1061.0,-9.0
4557,1114.0,-24.0
4558,1512.0,-41.0
4559,1563.0,-56.0
4560,1414.0,-69.0
4561,1051.0,-84.0
4562,1096.0,-106.0
4563,1518.0,-135.0
4564,1602.0,-164.0
4565,1430.0,-186.0
4566,954.0,-203.0
4567,1031.0,-221.0
4568,1554.0,-245.0
4569,1643.0,-273.0
4570,1011.0,-335.0
4571,1361.0,-347.0
4572,1531.0,-345.0
4573,1423.0,-325.0
4574,1054.0,-292.0
4575,1103.0,-259.0
4576,1487.0,-232.0
4577,1662.0,-211.0
4578,1522.0,-189.0
4579,1168.0,-164.0
4580,1007.0,-142.0
4581,1325.0,-127.0
4582,1505.0,-114.0
4583,1394.0,-101.0
4584,1057.0,-88.0
4585,1052.0,-81.0
4586,1378.0,-79.0
4587,1554.0,-74.0
4588,1320.0,-57.0
4589,957.0,-27.0
4590,1628.0,-11.0
4591,1493.0,-24.0
4592,1193.0,-38.0
4593,1015.0,-54.0
4594,1406.0,-67.0
4595,1587.0,-68.0
4596,1421.0,-49.0
4597,1098.0,-11.0
4598,968.0,35.0
4599,1367.0,78.0
4600,1725.0,114.0
4601,1706.0,142.0
4602,1267.0,161.0
4603,1064.0,168.0
4604,1347.0,162.0
4605,1651.0,149.0
4606,1584.0,138.0
4607,1293.0,132.0
4608,1071.0,124.0
4609,1355.0,108.0
4610,1660.0,86.0
4611,1578.0,68.0
4612,1270.0,60.0
4613,1119.0,63.0
4614,1510.0,72.0
4615,1879.0,85.0
4616,1847.0,102.0
4617,1514.0,118.0
4618,1275.0,124.0
4619,1691.0,116.0
4620,2133.0,97.0
4621,2165.0,80.0
4622,1910.0,71.0
4623,1591.0,68.0
4624,1745.0,65.0
4625,1817.0,62.0
4626,1487.0,66.0
4627,1088.0,79.0
4628,809.0,99.0
4629,1680.0,141.0
4630,1719.0,169.0
4631,1456.0,205.0
4632,1224.0,245.0
4633,1506.0,283.0
4634,1892.0,315.0
4635,1833.0,336.0
4636,1478.0,335.0
4637,1238.0,294.0
4638,1468.0,201.0
4639,1883.0,65.0
4640,1886.0,-84.0
4641,1622.0,-217.0
4642,1307.0,-307.0
4643,1464.0,-343.0
4644,1834.0,-325.0
4645,1911.0,-263.0
4646,1748.0,-179.0
4647,1349.0,-101.0
4648,1516.0,-50.0
4649,1894.0,-31.0
4650,1886.0,-28.0
4651,1336.0,-13.0
4652,1536.0,5.0
4653,1981.0,26.0
4654,2099.0,49.0
4655,1869.0,69.0
4656,1438.0,80.0
4657,1629.0,75.0
4658,2090.0,56.0
4659,2112.0,35.0
4660,1961.0,20.0
4661,1564.0,10.0
4662,1727.0,0.0
4663,2231.0,-14.0
4664,2283.0,-26.0
4665,2035.0,-28.0
4666,1698.0,-20.0
4667,1868.0,-8.0
4668,2207.0,3.0
4669,2179.0,19.0
4670,2002.0,37.0
4671,905.0,-216.0
4672,842.0,-246.0
4673,1192.0,-287.0
4674,1291.0,-329.0
4675,1085.0,-365.0
4676,763.0,-389.0
4677,702.0,-405.0
4678,1096.0,-418.0
4679,1318.0,-430.0
4680,1188.0,-438.0
4681,735.0,-446.0
4682,612.0,-456.0
4683,994.0,-467.0
4684,1163.0,-470.0
4685,1045.0,-457.0
4686,744.0,-426.0
4687,598.0,-388.0
4688,936.0,-353.0
4689,1243.0,-322.0
4690,1138.0,-291.0
4691,844.0,-258.0
4692,630.0,-225.0
4693,734.0,-101.0
4694,544.0,-79.0
4695,896.0,-70.0
4696,1177.0,-65.0
4697,1131.0,-55.0
4698,858.0,-34.0
4699,683.0,-4.0
4700,979.0,25.0
4701,1223.0,55.0
4702,1136.0,85.0
4703,858.0,113.0
4704,661.0,132.0
4705,1119.0,137.0
4706,1421.0,132.0
4707,1334.0,125.0
4708,1059.0,124.0
4709,830.0,128.0
4710,1094.0,135.0
4711,1416.0,148.0
4712,1380.0,167.0
4713,1090.0,193.0
4714,780.0,214.0
4715,1069.0,225.0
4716,1340.0,227.0
4717,1336.0,232.0
4718,1034.0,245.0
4719,749.0,267.0
4720,1138.0,292.0
4721,1451.0,317.0
4722,1306.0,341.0
4723,1024.0,361.0
4724,687.0,369.0
4725,912.0,360.0
4726,1306.0,338.0
4727,1302.0,312.0
4728,999.0,290.0
4729,751.0,269.0
4730,1009.0,245.0
4731,1280.0,222.0
4732,1325.0,204.0
4733,1166.0,196.0
4734,849.0,192.0
4735,1020.0,184.0
4736,1426.0,168.0
4737,1403.0,149.0
4738,1172.0,129.0
4739,876.0,110.0
4740,1132.0,89.0
4741,1659.0,71.0
4742,1891.0,65.0
4743,1735.0,73.0
4744,1372.0,90.0
4745,1441.0,107.0
4746,1607.0,119.0
4747,1394.0,130.0
4748,1012.0,143.0
4749,567.0,155.0
4750,896.0,161.0
4751,1483.0,161.0
4752,1640.0,163.0
4753,1498.0,180.0
4754,1204.0,214.0
4755,1446.0,264.0
4756,1800.0,323.0
4757,1862.0,381.0
4758,1706.0,422.0
4759,1342.0,422.0
4760,1442.0,362.0
4761,1856.0,246.0
4762,1864.0,99.0
4763,1650.0,-37.0
4764,1308.0,-134.0
4765,1378.0,-174.0
4766,1861.0,-80.0
4767,1678.0,19.0
4768,1312.0,116.0
4769,1336.0,183.0
4770,1878.0,211.0
4771,1946.0,210.0
4772,1724.0,198.0
4773,1334.0,185.0
4774,1382.0,171.0
4775,1815.0,156.0
4776,2019.0,141.0
4777,1882.0,124.0
4778,1523.0,103.0
4779,1483.0,71.0
4780,1874.0,30.0
4781,2041.0,-10.0
4782,1857.0,-41.0
4783,1467.0,-61.0
4784,1423.0,-75.0
4785,1911.0,-89.0
4786,2071.0,-99.0
4787,1790.0,-101.0
4788,1440.0,-96.0
4789,1333.0,-89.0
4790,1752.0,-84.0
4791,1991.0,-76.0
4792,1770.0,-62.0
4793,1311.0,-48.0
4794,1187.0,-44.0
4795,1516.0,-53.0
4796,1726.0,-72.0
4797,1653.0,-91.0
4798,1288.0,-107.0
4799,1063.0,-123.0
4800,1375.0,-143.0
4801,1087.0,-199.0
4802,882.0,-219.0
4803,1279.0,-248.0
4804,1463.0,-281.0
4805,1238.0,-312.0
4806,868.0,-337.0
4807,671.0,-361.0
4808,1094.0,-386.0
4809,1390.0,-408.0
4810,1266.0,-420.0
4811,973.0,-423.0
4812,706.0,-422.0
4813,856.0,-425.0
4814,1161.0,-432.0
4815,1033.0,-439.0
4816,791.0,-443.0
4817,565.0,-450.0
4818,923.0,-464.0
4819,1208.0,-480.0
4820,1172.0,-489.0
4821,1000.0,-484.0
4822,788.0,-468.0
4823,1119.0,-444.0
4824,1426.0,-416.0
4825,1327.0,-386.0
4826,1044.0,-359.0
4827,700.0,-343.0
4828,939.0,-342.0
4829,1301.0,-348.0
4830,1266.0,-348.0
4831,1087.0,-329.0
4832,1526.0,97.0
4833,1471.0,106.0
4834,1252.0,133.0
4835,1004.0,170.0
4836,1296.0,205.0
4837,1648.0,234.0
4838,1597.0,258.0
4839,1439.0,280.0
4840,1212.0,296.0
4841,1292.0,302.0
4842,1578.0,297.0
4843,1491.0,286.0
4844,1349.0,272.0
4845,1078.0,252.0
4846,1310.0,227.0
4847,1683.0,199.0
4848,1643.0,181.0
4849,1403.0,178.0
4850,1112.0,187.0
4851,1144.0,201.0
4852,1450.0,215.0
4853,1531.0,226.0
4854,1358.0,231.0
4855,1510.0,175.0
4856,1509.0,148.0
4857,1212.0,133.0
4858,852.0,131.0
4859,903.0,135.0
4860,1345.0,136.0
4861,1433.0,131.0
4862,1162.0,119.0
4863,808.0,95.0
4864,863.0,59.0
4865,1262.0,18.0
4866,1351.0,-15.0
4867,1099.0,-33.0
4868,822.0,-38.0
4869,903.0,-40.0
4870,1368.0,-48.0
4871,1584.0,-62.0
4872,1560.0,-78.0
4873,1333.0,-94.0
4874,1307.0,-112.0
4875,1588.0,-129.0
4876,1441.0,-139.0
4877,962.0,-136.0
4878,377.0,-126.0
4879,225.0,-118.0
4880,797.0,-115.0
4881,1071.0,-110.0
4882,1037.0,-94.0
4883,758.0,-60.0
4884,754.0,-8.0
4885,1266.0,58.0
4886,1424.0,137.0
4887,573.0,-63.0
4888,926.0,13.0
4889,1228.0,53.0
4890,1111.0,67.0
4891,800.0,70.0
4892,607.0,69.0
4893,939.0,68.0
4894,1193.0,70.0
4895,1092.0,78.0
4896,825.0,86.0
4897,669.0,84.0
4898,1047.0,65.0
4899,1332.0,37.0
4900,1232.0,9.0
4901,907.0,-9.0
4902,738.0,-23.0
4903,1098.0,-33.0
4904,1422.0,-37.0
4905,1367.0,-31.0
4906,1069.0,-16.0
4907,825.0,0.0
4908,1176.0,11.0
4909,1533.0,21.0
4910,1407.0,35.0
4911,1461.0,209.0
4912,1264.0,202.0
4913,722.0,196.0
4914,1086.0,190.0
4915,1077.0,185.0
4916,736.0,182.0
4917,383.0,176.0
4918,682.0,161.0
4919,1060.0,136.0
4920,1115.0,108.0
4921,907.0,79.0
4922,574.0,43.0
4923,783.0,-7.0
4924,1135.0,-71.0
4925,1157.0,-139.0
4926,811.0,-307.0
4927,1225.0,-342.0
4928,1157.0,-357.0
4929,928.0,-348.0
4930,615.0,-320.0
4931,794.0,-284.0
4932,1212.0,-244.0
4933,1224.0,-198.0
4934,993.0,-148.0
4935,674.0,-100.0
4936,867.0,-65.0
4937,1291.0,-42.0
4938,1285.0,-26.0
4939,1046.0,-10.0
4940,664.0,6.0
4941,799.0,19.0
4942,1252.0,28.0
4943,1332.0,36.0
4944,1114.0,46.0
4945,740.0,54.0
4946,1235.0,51.0
4947,1058.0,52.0
4948,697.0,50.0
4949,695.0,39.0
4950,1144.0,17.0
4951,1190.0,-7.0
4952,1092.0,-26.0
4953,783.0,-36.0
4954,727.0,-40.0
4955,1080.0,-42.0
4956,1150.0,-40.0
4957,969.0,-32.0
4958,604.0,-22.0
4959,503.0,-17.0
4960,869.0,-19.0
4961,1105.0,-21.0
4962,1014.0,-18.0
4963,612.0,-11.0
4964,540.0,-5.0
4965,903.0,-2.0
4966,1184.0,0.0
4967,1047.0,4.0
4968,595.0,9.0
4969,517.0,4.0
4970,940.0,-13.0
4971,1138.0,-41.0
4972,956.0,-69.0
4973,587.0,-92.0
4974,473.0,-109.0
4975,945.0,-119.0
4976,1217.0,-119.0
4977,1085.0,-103.0
4978,831.0,-79.0
4979,715.0,-55.0
4980,1180.0,-40.0
4981,1581.0,-34.0
4982,1498.0,-30.0
4983,984.0,-25.0
4984,533.0,-24.0
4985,492.0,-28.0
4986,528.0,-34.0
4987,298.0,-33.0
4988,28.0,-23.0
4989,-11.0,-7.0
4990,430.0,11.0
4991,801.0,37.0
4992,761.0,77.0
4993,477.0,130.0
4994,350.0,187.0
4995,748.0,229.0
4996,1095.0,241.0
4997,1052.0,212.0
4998,789.0,132.0
4999,564.0,3.0
5000,959.0,-159.0
5001,1249.0,-321.0
5002,1147.0,-442.0
5003,891.0,-492.0
5004,661.0,-468.0
5005,986.0,-387.0
5006,1307.0,-274.0
5007,1257.0,-153.0
5008,985.0,-46.0
5009,852.0,30.0
5010,1135.0,77.0
5011,1455.0,105.0
5012,1457.0,132.0
5013,1197.0,167.0
5014,895.0,205.0
5015,1168.0,238.0
5016,1603.0,259.0
5017,1573.0,270.0
5018,1350.0,272.0
5019,1090.0,264.0
5020,1386.0,248.0
5021,1818.0,230.0
5022,1707.0,218.0
5023,1398.0,216.0
5024,1191.0,220.0
5025,1468.0,221.0
5026,1808.0,218.0
5027,1757.0,213.0
5028,1528.0,209.0
5029,1256.0,205.0
5030,1496.0,181.0
5031,1104.0,163.0
5032,1148.0,140.0
5033,1491.0,116.0
5034,1488.0,96.0
5035,1119.0,82.0
5036,753.0,70.0
5037,838.0,54.0
5038,1238.0,33.0
5039,1296.0,12.0
5040,1103.0,-5.0
5041,760.0,-22.0
5042,733.0,-46.0
5043,1124.0,-78.0
5044,1244.0,-116.0
5045,1027.0,-155.0
5046,712.0,-197.0
5047,792.0,-246.0
5048,1207.0,-301.0
5049,1261.0,-352.0
5050,1098.0,-391.0
5051,691.0,-415.0
5052,684.0,-426.0
5053,1115.0,-428.0
5054,1279.0,-419.0
5055,1127.0,-399.0
5056,1187.0,-336.0
5057,1304.0,-319.0
5058,1104.0,-293.0
5059,771.0,-259.0
5060,741.0,-224.0
5061,1135.0,-195.0
5062,1334.0,-173.0
5063,1198.0,-154.0
5064,832.0,-139.0
5065,777.0,-129.0
5066,1236.0,-123.0
5067,1413.0,-113.0
5068,1245.0,-95.0
5069,954.0,-71.0
5070,926.0,-50.0
5071,1316.0,-40.0
5072,1494.0,-38.0
5073,1412.0,-36.0
5074,1131.0,-32.0
5075,935.0,-28.0
5076,1341.0,-24.0
5077,1508.0,-16.0
5078,1357.0,0.0
5079,1049.0,20.0
5080,969.0,39.0
5081,1386.0,52.0
5082,1647.0,62.0
5083,1480.0,75.0
5084,1159.0,92.0
5085,1054.0,109.0
5086,1357.0,121.0
5087,1590.0,129.0
5088,1495.0,136.0
5089,913.0,101.0
5090,1232.0,85.0
5091,1538.0,66.0
5092,1452.0,55.0
5093,1298.0,53.0
5094,1154.0,55.0
5095,1435.0,51.0
5096,1773.0,38.0
5097,1408.0,-26.0
5098,1767.0,6.0
5099,1764.0,41.0
5100,1633.0,78.0
5101,1479.0,108.0
5102,1827.0,123.0
5103,2267.0,120.0
5104,2146.0,104.0
5105,1635.0,82.0
5106,968.0,57.0
5107,932.0,33.0
5108,1202.0,18.0
5109,1147.0,20.0
5110,1040.0,39.0
5111,841.0,66.0
5112,1453.0,121.0
5113,1540.0,156.0
5114,1397.0,202.0
5115,1116.0,248.0
5116,1290.0,275.0
5117,1672.0,262.0
5118,1720.0,202.0
5119,1485.0,95.0
5120,1192.0,-47.0
5121,1376.0,-203.0
5122,1773.0,-336.0
5123,1793.0,-415.0
5124,1177.0,-370.0
5125,1319.0,-282.0
5126,1868.0,-187.0
5127,1967.0,-107.0
5128,1729.0,-48.0
5129,1380.0,-13.0
5130,1497.0,1.0
5131,1898.0,6.0
5132,1906.0,18.0
5133,1725.0,42.0
5134,1477.0,73.0
5135,1644.0,100.0
5136,1607.0,113.0
5137,2100.0,107.0
5138,2226.0,106.0
5139,2056.0,109.0
5140,1773.0,112.0
5141,1831.0,107.0
5142,2238.0,93.0
5143,2392.0,81.0
5144,2254.0,80.0
5145,1954.0,92.0
5146,1886.0,110.0
5147,2283.0,124.0
5148,2403.0,133.0
5149,2264.0,137.0
5150,1927.0,133.0
5151,1899.0,120.0
5152,2230.0,103.0
5153,2334.0,93.0
5154,2094.0,97.0
5155,1802.0,114.0
5156,1643.0,132.0
5157,1939.0,143.0
5158,2021.0,145.0
5159,1880.0,140.0
5160,1435.0,129.0
5161,1183.0,110.0
5162,1481.0,83.0
5163,1691.0,55.0
5164,1599.0,32.0
5165,1270.0,12.0
5166,1095.0,-10.0
5167,1505.0,-42.0
5168,1739.0,-82.0
5169,1609.0,-123.0
5170,1170.0,-166.0
5171,1016.0,-213.0
5172,1423.0,-266.0
5173,1723.0,-321.0
5174,1211.0,-414.0
5175,1041.0,-448.0
5176,1391.0,-472.0
5177,1755.0,-482.0
5178,1545.0,-469.0
5179,1184.0,-435.0
5180,951.0,-392.0
5181,1251.0,-352.0
5182,1579.0,-319.0
5183,1531.0,-290.0
5184,1187.0,-262.0
5185,1257.0,-219.0
5186,1568.0,-198.0
5187,1456.0,-169.0
5188,1137.0,-133.0
5189,893.0,-98.0
5190,1224.0,-76.0
5191,1502.0,-67.0
5192,1374.0,-65.0
5193,1575.0,-11.0
5194,1285.0,-9.0
5195,1060.0,-6.0
5196,1333.0,-5.0
5197,1700.0,-1.0
5198,1658.0,10.0
5199,1424.0,30.0
5200,1132.0,52.0
5201,1367.0,70.0
5202,1796.0,84.0
5203,1731.0,100.0
5204,1454.0,120.0
5205,1110.0,140.0
5206,1241.0,157.0
5207,1629.0,170.0
5208,1581.0,184.0
5209,1313.0,199.0
5210,959.0,213.0
5211,1101.0,220.0
5212,1092.0,35.0
5213,741.0,28.0
5214,888.0,27.0
5215,1363.0,26.0
5216,1213.0,25.0
5217,869.0,20.0
5218,904.0,6.0
5219,1426.0,-12.0
5220,1652.0,-24.0
5221,1556.0,-24.0
5222,1348.0,-14.0
5223,1416.0,-5.0
5224,1731.0,-3.0
5225,1624.0,-8.0
5226,1060.0,-14.0
5227,459.0,-17.0
5228,336.0,-19.0
5229,743.0,-15.0
5230,958.0,0.0
5231,895.0,29.0
5232,720.0,74.0
5233,762.0,128.0
5234,1257.0,186.0
5235,1463.0,250.0
5236,1199.0,-142.0
5237,1159.0,-19.0
5238,1615.0,79.0
5239,1880.0,144.0
5240,1761.0,181.0
5241,1397.0,199.0
5242,1218.0,208.0
5243,1650.0,218.0
5244,1909.0,238.0
5245,1826.0,271.0
5246,1526.0,307.0
5247,1338.0,332.0
5248,1627.0,336.0
5249,1852.0,323.0
5250,1739.0,302.0
5251,1303.0,260.0
5252,1694.0,239.0
5253,2040.0,223.0
5254,1997.0,215.0
5255,1723.0,213.0
5256,1521.0,208.0
5257,1839.0,197.0
5258,2203.0,180.0
5259,2114.0,163.0
5260,1887.0,148.0
5261,1710.0,130.0
5262,1939.0,104.0
5263,2178.0,75.0
5264,2192.0,54.0
5265,2022.0,47.0
5266,1798.0,52.0
5267,2076.0,64.0
5268,2408.0,82.0
5269,2317.0,103.0
5270,2039.0,125.0
5271,1779.0,139.0
5272,1991.0,141.0
5273,2268.0,133.0
5274,2087.0,123.0
5275,1784.0,115.0
5276,1568.0,109.0
5277,1817.0,99.0
5278,2116.0,89.0
5279,1948.0,83.0
5280,1598.0,82.0
5281,1351.0,83.0
5282,1578.0,77.0
5283,1374.0,-415.0
5284,1182.0,-411.0
5285,1255.0,-393.0
5286,1669.0,-375.0
5287,1640.0,-354.0
5288,1378.0,-327.0
5289,1124.0,-297.0
5290,1229.0,-271.0
5291,1663.0,-252.0
5292,1710.0,-236.0
5293,1479.0,-220.0
5294,1135.0,-207.0
5295,1147.0,-199.0
5296,1585.0,-198.0
5297,1664.0,-197.0
5298,1380.0,-195.0
5299,1090.0,-194.0
5300,1260.0,-200.0
5301,1694.0,-211.0
5302,1746.0,-220.0
5303,1551.0,-218.0
5304,1201.0,-204.0
5305,1200.0,-184.0
5306,1628.0,-165.0
5307,1757.0,-146.0
5308,1549.0,-128.0
5309,1234.0,-116.0
5310,1238.0,-113.0
5311,1665.0,-116.0
5312,1775.0,-115.0
5313,1519.0,-99.0
5314,1149.0,-70.0
5315,1040.0,-37.0
5316,1495.0,-7.0
5317,1681.0,16.0
5318,1471.0,34.0
5319,1046.0,45.0
5320,1033.0,45.0
5321,1444.0,38.0
5322,1659.0,33.0
5323,1525.0,38.0
5324,1124.0,51.0
5325,1023.0,61.0
5326,1409.0,60.0
5327,1663.0,50.0
5328,1551.0,35.0
5329,1191.0,18.0
5330,1133.0,-1.0
5331,1496.0,-21.0
5332,1669.0,-36.0
5333,1553.0,-37.0
5334,1252.0,-25.0
5335,1074.0,-10.0
5336,1503.0,0.0
5337,1817.0,8.0
5338,1680.0,18.0
5339,1379.0,31.0
5340,1291.0,42.0
5341,1796.0,49.0
5342,2203.0,57.0
5343,1983.0,72.0
5344,1434.0,92.0
5345,990.0,109.0
5346,1122.0,118.0
5347,1319.0,120.0
5348,1206.0,122.0
5349,901.0,128.0
5350,829.0,136.0
5351,1297.0,146.0
5352,1665.0,165.0
5353,1505.0,199.0
5354,1165.0,246.0
5355,975.0,293.0
5356,1364.0,320.0
5357,1778.0,313.0
5358,1679.0,267.0
5359,1337.0,181.0
5360,1172.0,63.0
5361,1528.0,-68.0
5362,1905.0,-181.0
5363,1842.0,-243.0
5364,1485.0,-243.0
5365,1697.0,248.0
5366,1767.0,257.0
5367,1522.0,254.0
5368,1314.0,241.0
5369,1629.0,217.0
5370,1981.0,187.0
5371,1926.0,159.0
5372,1706.0,136.0
5373,1439.0,112.0
5374,1686.0,81.0
5375,2101.0,46.0
5376,2156.0,16.0
5377,1951.0,-1.0
5378,1660.0,-7.0
5379,1729.0,-3.0
5380,2132.0,12.0
5381,2207.0,39.0
5382,1987.0,75.0
5383,1608.0,112.0
5384,1657.0,140.0
5385,2032.0,155.0
5386,2080.0,165.0
5387,1767.0,175.0
5388,1340.0,186.0
5389,1511.0,-58.0
5390,1322.0,-105.0
5391,983.0,-145.0
5392,920.0,-184.0
5393,1332.0,-221.0
5394,1522.0,-253.0
5395,1422.0,-277.0
5396,1105.0,-298.0
5397,1030.0,-321.0
5398,1439.0,-347.0
5399,1708.0,-368.0
5400,1513.0,-376.0
5401,1034.0,-368.0
5402,918.0,-351.0
5403,1353.0,-284.0
5404,933.0,-256.0
5405,814.0,-231.0
5406,1266.0,-207.0
5407,1481.0,-179.0
5408,1307.0,-140.0
5409,936.0,-94.0
5410,780.0,-52.0
5411,994.0,-72.0
5412,693.0,-70.0
5413,503.0,-75.0
5414,1122.0,-105.0
5415,983.0,-116.0
5416,593.0,-118.0
5417,371.0,-118.0
5418,768.0,-119.0
5419,1135.0,-122.0
5420,960.0,-122.0
5421,529.0,-116.0
5422,299.0,-109.0
5423,684.0,-102.0
5424,1031.0,-91.0
5425,925.0,-71.0
5426,613.0,-43.0
5427,332.0,-16.0
5428,605.0,0.0
5429,905.0,7.0
5430,881.0,13.0
5431,662.0,19.0
5432,436.0,25.0
5433,758.0,27.0
5434,1119.0,27.0
5435,1047.0,33.0
5436,855.0,185.0
5437,1220.0,219.0
5438,1708.0,244.0
5439,1645.0,265.0
5440,1321.0,284.0
5441,863.0,299.0
5442,869.0,308.0
5443,1129.0,317.0
5444,971.0,330.0
5445,693.0,348.0
5446,444.0,362.0
5447,705.0,368.0
5448,1200.0,369.0
5449,1333.0,377.0
5450,1133.0,400.0
5451,766.0,434.0
5452,910.0,465.0
5453,1315.0,480.0
5454,1324.0,467.0
5455,1159.0,418.0
5456,839.0,326.0
5457,914.0,199.0
5458,1262.0,61.0
5459,1305.0,-54.0
5460,1164.0,-120.0
5461,884.0,-129.0
5462,1005.0,-91.0
5463,1369.0,-25.0
5464,1408.0,47.0
5465,1230.0,110.0
5466,964.0,148.0
5467,1029.0,154.0
5468,1267.0,135.0
5469,1189.0,71.0
5470,1141.0,56.0
5471,1571.0,39.0
5472,1651.0,25.0
5473,1507.0,21.0
5474,1196.0,28.0
5475,1182.0,41.0
5476,1588.0,53.0
5477,1754.0,67.0
5478,1647.0,82.0
5479,1293.0,94.0
5480,1216.0,96.0
5481,1619.0,85.0
5482,1820.0,66.0
5483,1664.0,47.0
5484,1318.0,30.0
5485,1159.0,14.0
5486,1584.0,-3.0
5487,1748.0,-19.0
5488,1530.0,-28.0
5489,1120.0,-30.0
5490,962.0,-31.0
5491,1372.0,-35.0
5492,1578.0,-39.0
5493,1363.0,-39.0
5494,1001.0,-38.0
5495,762.0,-42.0
5496,1167.0,-54.0
5497,1448.0,-70.0
5498,1223.0,-85.0
5499,833.0,-100.0
5500,586.0,-121.0
5501,1002.0,-153.0
5502,1272.0,-192.0
5503,1042.0,-231.0
5504,718.0,-266.0
5505,450.0,-301.0
5506,1059.0,-395.0
5507,789.0,-410.0
5508,495.0,-423.0
5509,735.0,-439.0
5510,1076.0,-457.0
5511,929.0,-468.0
5512,640.0,-472.0
5513,456.0,-474.0
5514,744.0,-480.0
5515,1010.0,-487.0
5516,1024.0,-489.0
5517,733.0,-481.0
5518,470.0,-466.0
5519,669.0,-448.0
5520,1000.0,-424.0
5521,973.0,-391.0
5522,653.0,-352.0
5523,340.0,-318.0
5524,580.0,-295.0
5525,912.0,-283.0
5526,869.0,-272.0
5527,619.0,-255.0
5528,302.0,-230.0
5529,465.0,-203.0
5530,862.0,-173.0
5531,888.0,-142.0
5532,734.0,-111.0
5533,438.0,-88.0
5534,617.0,-80.0
5535,970.0,-83.0
5536,909.0,-90.0
5537,598.0,112.0
5538,999.0,122.0
5539,1079.0,124.0
5540,896.0,128.0
5541,569.0,135.0
5542,612.0,145.0
5543,1058.0,157.0
5544,1125.0,175.0
5545,902.0,198.0
5546,527.0,216.0
5547,634.0,220.0
5548,1096.0,212.0
5549,1188.0,198.0
5550,908.0,190.0
5551,512.0,189.0
5552,607.0,192.0
5553,1046.0,198.0
5554,1149.0,209.0
5555,911.0,225.0
5556,577.0,239.0
5557,710.0,244.0
5558,1382.0,236.0
5559,1535.0,225.0
5560,1293.0,218.0
5561,815.0,215.0
5562,676.0,211.0
5563,909.0,203.0
5564,793.0,194.0
5565,429.0,187.0
5566,76.0,179.0
5567,79.0,166.0
5568,668.0,151.0
5569,960.0,147.0
5570,840.0,165.0
5571,523.0,206.0
5572,503.0,257.0
5573,955.0,302.0
5574,1205.0,328.0
5575,1051.0,320.0
5576,695.0,264.0
5577,656.0,154.0
5578,1122.0,4.0
5579,1336.0,-151.0
5580,1145.0,-275.0
5581,812.0,-341.0
5582,747.0,-343.0
5583,1148.0,-290.0
5584,1395.0,-198.0
5585,1269.0,-90.0
5586,1039.0,9.0
5587,905.0,81.0
5588,1194.0,119.0
5589,1424.0,137.0
5590,1394.0,152.0
5591,1064.0,174.0
5592,882.0,202.0
5593,1215.0,228.0
5594,1490.0,251.0
5595,1343.0,270.0
5596,1110.0,282.0
5597,923.0,283.0
5598,1335.0,272.0
5599,1613.0,257.0
5600,1543.0,245.0
5601,1272.0,236.0
5602,1085.0,226.0
5603,1364.0,209.0
5604,1664.0,186.0
5605,1682.0,164.0
5606,1372.0,145.0
5607,1076.0,127.0
5608,1498.0,106.0
5609,1855.0,88.0
5610,1690.0,79.0
5611,1346.0,80.0
5612,1078.0,88.0
5613,1463.0,94.0
5614,1768.0,98.0
5615,1697.0,103.0
5616,1438.0,108.0
5617,1077.0,108.0
5618,1280.0,100.0
5619,1578.0,87.0
5620,1498.0,78.0
5621,891.0,-150.0
5622,1093.0,-188.0
5623,1525.0,-229.0
5624,1512.0,-264.0
5625,1280.0,-284.0
5626,988.0,-294.0
5627,1231.0,-300.0
5628,1582.0,-306.0
5629,1580.0,-309.0
5630,1355.0,-307.0
5631,1009.0,-303.0
5632,1199.0,-300.0
5633,1631.0,-297.0
5634,1634.0,-287.0
5635,1312.0,-222.0
5636,1742.0,-203.0
5637,1717.0,-181.0
5638,1447.0,-154.0
5639,1148.0,-126.0
5640,1253.0,-106.0
5641,1645.0,-94.0
5642,1709.0,-87.0
5643,1538.0,-80.0
5644,1199.0,-74.0
5645,1295.0,-73.0
5646,1720.0,-75.0
5647,1735.0,-71.0
5648,1507.0,-58.0
5649,1138.0,-40.0
5650,1253.0,-26.0
5651,1755.0,-20.0
5652,1845.0,-20.0
5653,1564.0,-20.0
5654,1194.0,-24.0
5655,1296.0,-33.0
5656,1655.0,-43.0
5657,1852.0,-48.0
5658,1636.0,-42.0
5659,1289.0,-32.0
5660,1363.0,-28.0
5661,1811.0,-33.0
5662,1992.0,-41.0
5663,1859.0,-47.0
5664,1543.0,-49.0
5665,1476.0,-49.0
5666,1817.0,-49.0
5667,1928.0,-47.0
5668,1777.0,-39.0
5669,1440.0,-31.0
5670,1848.0,-31.0
5671,1974.0,-31.0
5672,1782.0,-20.0
5673,1505.0,2.0
5674,1343.0,31.0
5675,1678.0,58.0
5676,1925.0,82.0
5677,1755.0,100.0
5678,1600.0,-80.0
5679,1962.0,-105.0
5680,2021.0,-120.0
5681,1707.0,-123.0
5682,1495.0,-121.0
5683,1642.0,-124.0
5684,1650.0,-131.0
5685,1278.0,-138.0
5686,847.0,-142.0
5687,697.0,-145.0
5688,1118.0,-146.0
5689,1528.0,-138.0
5690,1489.0,-115.0
5691,1287.0,-73.0
5692,1936.0,77.0
5693,1857.0,107.0
5694,1547.0,109.0
5695,1285.0,67.0
5696,1610.0,-22.0
5697,2021.0,-145.0
5698,1924.0,-269.0
5699,1647.0,-365.0
5700,1318.0,-411.0
5701,1543.0,-399.0
5702,1949.0,-330.0
5703,1924.0,-219.0
5704,1656.0,-90.0
5705,1379.0,24.0
5706,1682.0,105.0
5707,1968.0,149.0
5708,1906.0,169.0
5709,1639.0,181.0
5710,1341.0,190.0
5711,1646.0,199.0
5712,2082.0,207.0
5713,2066.0,216.0
5714,1481.0,222.0
5715,1594.0,207.0
5716,2022.0,184.0
5717,2097.0,162.0
5718,1809.0,147.0
5719,1587.0,135.0
5720,1827.0,120.0
5721,2194.0,102.0
5722,2222.0,88.0
5723,2036.0,84.0
5724,1734.0,89.0
5725,1887.0,99.0
5726,2260.0,111.0
5727,2287.0,125.0
5728,2102.0,137.0
5729,1758.0,141.0
5730,1880.0,133.0
5731,2214.0,118.0
5732,2196.0,109.0
5733,1962.0,115.0
5734,1654.0,133.0
5735,1696.0,156.0
5736,2032.0,177.0
5737,1442.0,204.0
5738,1502.0,194.0
5739,1897.0,174.0
5740,2002.0,154.0
5741,1752.0,136.0
5742,1394.0,117.0
5743,1341.0,92.0
5744,1663.0,58.0
5745,1756.0,20.0
5746,1587.0,-16.0
5747,1201.0,-52.0
5748,1222.0,-89.0
5749,1583.0,-127.0
5750,1100.0,-197.0
5751,1140.0,-206.0
5752,1488.0,-216.0
5753,1634.0,-224.0
5754,1470.0,-230.0
5755,1127.0,-237.0
5756,1046.0,-249.0
5757,1482.0,-266.0
5758,1699.0,-281.0
5759,1489.0,-285.0
5760,1055.0,-278.0
5761,963.0,-268.0
5762,1380.0,-257.0
5763,1664.0,-246.0
5764,1508.0,-231.0
5765,1157.0,-213.0
5766,1072.0,-197.0
5767,1485.0,-183.0
5768,1665.0,-167.0
5769,1482.0,-143.0
5770,1077.0,-114.0
5771,1022.0,-87.0
5772,1665.0,-60.0
5773,1508.0,-51.0
5774,1150.0,-39.0
5775,933.0,-29.0
5776,1218.0,-18.0
5777,1429.0,-2.0
5778,1343.0,22.0
5779,1087.0,52.0
5780,916.0,75.0
5781,1263.0,85.0
5782,1431.0,84.0
5783,1356.0,80.0
5784,1067.0,79.0
5785,890.0,80.0
5786,1254.0,80.0
5787,1561.0,78.0
5788,1532.0,76.0
5789,1271.0,70.0
5790,1013.0,56.0
5791,1345.0,34.0
5792,1571.0,12.0
5793,1497.0,3.0
5794,1235.0,8.0
5795,1336.0,39.0
5796,1678.0,52.0
5797,1673.0,67.0
5798,1331.0,86.0
5799,1111.0,108.0
5800,1421.0,132.0
5801,1775.0,158.0
5802,1701.0,187.0
5803,1689.0,281.0
5804,2164.0,271.0
5805,2248.0,264.0
5806,2045.0,265.0
5807,1779.0,271.0
5808,1975.0,275.0
5809,2167.0,276.0
5810,1897.0,277.0
5811,1421.0,278.0
5812,855.0,273.0
5813,1004.0,261.0
5814,1531.0,246.0
5815,1639.0,239.0
5816,1520.0,250.0
5817,1275.0,277.0
5818,1519.0,314.0
5819,1926.0,356.0
5820,2001.0,396.0
5821,1816.0,419.0
5822,1499.0,404.0
5823,1623.0,332.0
5824,1945.0,205.0
5825,2025.0,41.0
5826,1881.0,-125.0
5827,1616.0,-265.0
5828,2162.0,-341.0
5829,2020.0,-248.0
5830,1706.0,-136.0
5831,1740.0,-39.0
5832,2152.0,24.0
5833,2295.0,52.0
5834,2091.0,56.0
5835,1769.0,49.0
5836,1904.0,40.0
5837,2310.0,38.0
5838,2391.0,51.0
5839,2193.0,78.0
5840,1857.0,109.0
5841,1873.0,133.0
5842,2318.0,141.0
5843,2420.0,135.0
5844,2279.0,123.0
5845,1961.0,107.0
5846,1978.0,87.0
5847,2361.0,68.0
5848,2417.0,56.0
5849,2403.0,55.0
5850,2105.0,62.0
5851,2027.0,67.0
5852,2392.0,63.0
5853,2413.0,53.0
5854,2372.0,42.0
5855,2087.0,29.0
5856,1994.0,13.0
5857,2341.0,-3.0
5858,2417.0,-16.0
5859,2336.0,-22.0
5860,1712.0,-181.0
5861,1921.0,-210.0
5862,1218.0,-281.0
5863,1544.0,-303.0
5864,1762.0,-322.0
5865,1584.0,-335.0
5866,1229.0,-345.0
5867,1086.0,-361.0
5868,1472.0,-390.0
5869,1709.0,-428.0
5870,1586.0,-469.0
5871,1272.0,-508.0
5872,1074.0,-545.0
5873,1335.0,-579.0
5874,1598.0,-604.0
5875,1469.0,-613.0
5876,1125.0,-608.0
5877,956.0,-596.0
5878,1318.0,-583.0
5879,1665.0,-569.0
5880,1540.0,-548.0
5881,1238.0,-165.0
5882,1570.0,-127.0
5883,1469.0,-91.0
5884,1136.0,-61.0
5885,836.0,-43.0
5886,1058.0,-40.0
5887,1399.0,-46.0
5888,1429.0,-49.0
5889,1212.0,-42.0
5890,935.0,-27.0
5891,1177.0,-9.0
5892,1494.0,11.0
5893,1412.0,39.0
5894,1083.0,72.0
5895,807.0,103.0
5896,998.0,123.0
5897,1424.0,130.0
5898,1425.0,129.0
5899,1180.0,125.0
5900,842.0,121.0
5901,984.0,119.0
5902,1334.0,124.0
5903,1369.0,143.0
5904,1096.0,174.0
5905,655.0,206.0
5906,784.0,224.0
5907,1220.0,222.0
5908,1275.0,209.0
5909,1055.0,193.0
5910,728.0,179.0
5911,832.0,171.0
5912,1279.0,171.0
5913,1367.0,182.0
5914,1142.0,201.0
5915,775.0,217.0
5916,806.0,217.0
5917,1200.0,199.0
5918,1377.0,172.0
5919,1227.0,146.0
5920,888.0,126.0
5921,957.0,113.0
5922,1300.0,109.0
5923,1379.0,118.0
5924,1256.0,142.0
5925,1047.0,175.0
5926,1297.0,203.0
5927,1745.0,221.0
5928,1815.0,230.0
5929,1445.0,237.0
5930,864.0,244.0
5931,613.0,249.0
5932,930.0,254.0
5933,999.0,264.0
5934,904.0,283.0
5935,590.0,305.0
5936,683.0,323.0
5937,1130.0,340.0
5938,1413.0,363.0
5939,1394.0,402.0
5940,1040.0,450.0
5941,983.0,489.0
5942,1355.0,499.0
5943,1519.0,464.0
5944,1354.0,382.0
5945,1028.0,257.0
5946,1003.0,107.0
5947,1408.0,-37.0
5948,1601.0,-141.0
5949,1444.0,-178.0
5950,1106.0,-145.0
5951,1005.0,-64.0
5952,1367.0,36.0
5953,1547.0,133.0
5954,1394.0,210.0
5955,1003.0,258.0
5956,1335.0,263.0
5957,1559.0,247.0
5958,1425.0,240.0
5959,1128.0,247.0
5960,972.0,262.0
5961,1399.0,276.0
5962,1600.0,283.0
5963,1517.0,281.0
5964,1249.0,267.0
5965,1077.0,235.0
5966,1314.0,187.0
5967,1616.0,135.0
5968,1574.0,92.0
5969,1296.0,63.0
5970,1161.0,47.0
5971,1539.0,39.0
5972,1884.0,38.0
5973,1854.0,46.0
5974,1542.0,60.0
5975,1431.0,71.0
5976,1750.0,74.0
5977,2064.0,72.0
5978,1919.0,68.0
5979,1658.0,66.0
5980,1345.0,63.0
5981,1632.0,56.0
5982,1917.0,51.0
5983,1765.0,57.0
5984,1452.0,78.0
5985,1171.0,107.0
5986,1420.0,139.0
5987,1708.0,169.0
5988,1522.0,198.0
5989,1201.0,222.0
5990,1074.0,227.0
5991,1415.0,203.0
5992,1302.0,169.0
5993,942.0,129.0
5994,617.0,81.0
5995,868.0,24.0
5996,1205.0,-37.0
5997,1153.0,-96.0
5998,847.0,-149.0
5999,510.0,-202.0
6000,662.0,-258.0
6001,1003.0,-318.0
6002,1036.0,-374.0
6003,804.0,-423.0
6004,519.0,-467.0
6005,652.0,-510.0
6006,1014.0,-547.0
6007,983.0,-572.0
6008,792.0,-581.0
6009,414.0,-580.0
6010,903.0,-259.0
6011,479.0,-238.0
6012,648.0,-222.0
6013,1056.0,-209.0
6014,1095.0,-192.0
6015,869.0,-165.0
6016,511.0,-130.0
6017,578.0,-96.0
6018,907.0,82.0
6019,547.0,83.0
6020,520.0,83.0
6021,904.0,81.0
6022,1126.0,84.0
6023,1005.0,97.0
6024,662.0,117.0
6025,607.0,136.0
6026,958.0,149.0
6027,1078.0,158.0
6028,895.0,163.0
6029,544.0,162.0
6030,448.0,151.0
6031,840.0,128.0
6032,1004.0,103.0
6033,765.0,85.0
6034,440.0,77.0
6035,325.0,77.0
6036,669.0,82.0
6037,888.0,93.0
6038,713.0,109.0
6039,440.0,124.0
6040,281.0,127.0
6041,654.0,113.0
6042,36.0,-49.0
6043,-22.0,-30.0
6044,356.0,-8.0
6045,725.0,19.0
6046,642.0,64.0
6047,415.0,128.0
6048,297.0,204.0
6049,687.0,280.0
6050,1025.0,341.0
6051,1026.0,371.0
6052,657.0,351.0
6053,390.0,269.0
6054,672.0,132.0
6055,984.0,-31.0
6056,942.0,-181.0
6057,678.0,-283.0
6058,481.0,-321.0
6059,835.0,-297.0
6060,1169.0,-223.0
6061,1109.0,-119.0
6062,804.0,-10.0
6063,502.0,78.0
6064,791.0,134.0
6065,1221.0,158.0
6066,1136.0,164.0
6067,903.0,163.0
6068,627.0,159.0
6069,850.0,154.0
6070,1240.0,155.0
6071,1263.0,169.0
6072,1027.0,196.0
6073,749.0,225.0
6074,943.0,244.0
6075,1322.0,250.0
6076,1359.0,245.0
6077,1119.0,232.0
6078,813.0,212.0
6079,1007.0,188.0
6080,1336.0,165.0
6081,1299.0,154.0
6082,1108.0,156.0
6083,800.0,165.0
6084,977.0,172.0
6085,1292.0,174.0
6086,1160.0,175.0
6087,964.0,177.0
6088,680.0,179.0
6089,776.0,174.0
6090,1097.0,165.0
6091,1007.0,154.0
6092,744.0,144.0
6093,386.0,132.0
6094,435.0,113.0
6095,802.0,88.0
6096,797.0,62.0
6097,488.0,39.0
6098,54.0,14.0
6099,72.0,-15.0
6100,394.0,-52.0
6101,412.0,-90.0
6102,136.0,-125.0
6103,-24.0,-161.0
6104,-23.0,-201.0
6105,-16.0,-245.0
6106,-26.0,-288.0
6107,-25.0,-326.0
6108,-23.0,-360.0
6109,-20.0,-395.0
6110,-25.0,-432.0
6111,-19.0,-469.0
6112,-26.0,-500.0
6113,-18.0,-527.0
6114,-21.0,-551.0
6115,-26.0,-571.0
6116,-29.0,-582.0
6117,-24.0,-584.0
6118,-27.0,-578.0
6119,-22.0,-566.0
6120,-21.0,-549.0
6121,-25.0,-522.0
6122,-19.0,-484.0
6123,-25.0,-435.0
6124,-22.0,-380.0
6125,-19.0,-323.0
6126,53.0,-269.0
6127,54.0,-222.0
6128,-20.0,-182.0
6129,-26.0,-147.0
6130,298.0,-116.0
6131,551.0,-86.0
6132,480.0,-57.0
6133,227.0,-29.0
6134,739.0,164.0
6135,478.0,213.0
6136,422.0,271.0
6137,863.0,332.0
6138,1178.0,391.0
6139,1056.0,444.0
6140,810.0,484.0
6141,685.0,505.0
6142,1071.0,449.0
6143,881.0,468.0
6144,1256.0,486.0
6145,1607.0,501.0
6146,1541.0,513.0
6147,1286.0,519.0
6148,1104.0,512.0
6149,1420.0,488.0
6150,1760.0,452.0
6151,1705.0,417.0
6152,1417.0,387.0
6153,1207.0,361.0
6154,1568.0,337.0
6155,1850.0,316.0
6156,1802.0,305.0
6157,1358.0,296.0
6158,1631.0,286.0
6159,2037.0,274.0
6160,2023.0,264.0
6161,1791.0,258.0
6162,1530.0,251.0
6163,1924.0,236.0
6164,2367.0,216.0
6165,2420.0,197.0
6166,2242.0,180.0
6167,1876.0,162.0
6168,1911.0,139.0
6169,1986.0,113.0
6170,1784.0,92.0
6171,1381.0,79.0
6172,1118.0,70.0
6173,1475.0,61.0
6174,2039.0,53.0
6175,2040.0,55.0
6176,1842.0,71.0
6177,1467.0,98.0
6178,1658.0,125.0
6179,2031.0,143.0
6180,2042.0,142.0
6181,1888.0,109.0
6182,1581.0,27.0
6183,1729.0,-105.0
6184,2068.0,-271.0
6185,2075.0,-432.0
6186,1883.0,-554.0
6187,1580.0,-614.0
6188,1734.0,-613.0
6189,2138.0,-561.0
6190,2118.0,-483.0
6191,1628.0,-331.0
6192,2064.0,-341.0
6193,2121.0,-358.0
6194,1955.0,-363.0
6195,1654.0,-352.0
6196,1759.0,-332.0
6197,2172.0,-309.0
6198,2276.0,-288.0
6199,2094.0,-272.0
6200,1759.0,-265.0
6201,1857.0,-273.0
6202,2231.0,-294.0
6203,2341.0,-318.0
6204,2134.0,-337.0
6205,1741.0,-349.0
6206,1701.0,-356.0
6207,2115.0,-357.0
6208,2336.0,-344.0
6209,2229.0,-317.0
6210,1885.0,-282.0
6211,1807.0,-249.0
6212,2095.0,-224.0
6213,1709.0,-175.0
6214,1662.0,-171.0
6215,2048.0,-178.0
6216,2177.0,-192.0
6217,1992.0,-205.0
6218,1591.0,-214.0
6219,1483.0,-219.0
6220,1792.0,-222.0
6221,1963.0,-219.0
6222,1782.0,-211.0
6223,1384.0,-205.0
6224,1277.0,-212.0
6225,1599.0,-235.0
6226,1744.0,-267.0
6227,1535.0,-293.0
6228,1225.0,-309.0
6229,1046.0,-316.0
6230,1363.0,-318.0
6231,1623.0,-319.0
6232,1508.0,-321.0
6233,1200.0,-328.0
6234,982.0,-345.0
6235,1480.0,-401.0
6236,1398.0,-420.0
6237,1191.0,-428.0
6238,970.0,-431.0
6239,1214.0,-434.0
6240,1467.0,-438.0
6241,1347.0,-435.0
6242,1014.0,-424.0
6243,762.0,-408.0
6244,1256.0,-75.0
6245,928.0,-69.0
6246,687.0,-65.0
6247,947.0,-64.0
6248,1229.0,-59.0
6249,1180.0,-44.0
6250,1014.0,-17.0
6251,742.0,13.0
6252,976.0,41.0
6253,1335.0,67.0
6254,1186.0,96.0
6255,922.0,130.0
6256,636.0,163.0
6257,920.0,189.0
6258,1223.0,207.0
6259,1195.0,221.0
6260,899.0,233.0
6261,592.0,241.0
6262,827.0,244.0
6263,1250.0,249.0
6264,1290.0,263.0
6265,1020.0,286.0
6266,715.0,310.0
6267,860.0,325.0
6268,1189.0,375.0
6269,864.0,385.0
6270,969.0,386.0
6271,1349.0,381.0
6272,1525.0,379.0
6273,1371.0,388.0
6274,939.0,406.0
6275,1078.0,426.0
6276,1537.0,442.0
6277,1648.0,457.0
6278,1506.0,469.0
6279,1172.0,476.0
6280,1282.0,470.0
6281,1859.0,453.0
6282,2098.0,433.0
6283,1940.0,417.0
6284,1455.0,407.0
6285,1296.0,399.0
6286,1387.0,392.0
6287,1242.0,391.0
6288,1057.0,399.0
6289,806.0,412.0
6290,971.0,423.0
6291,1404.0,429.0
6292,1695.0,438.0
6293,1560.0,462.0
6294,1307.0,500.0
6295,1240.0,542.0
6296,1690.0,574.0
6297,1880.0,582.0
6298,1737.0,549.0
6299,1414.0,463.0
6300,1307.0,325.0
6301,1657.0,153.0
6302,1909.0,-13.0
6303,1793.0,-133.0
6304,1424.0,-182.0
6305,1303.0,-161.0
6306,1694.0,-87.0
6307,1883.0,12.0
6308,1728.0,112.0
6309,1339.0,187.0
6310,1295.0,224.0
6311,1742.0,224.0
6312,1940.0,204.0
6313,1795.0,186.0
6314,1782.0,173.0
6315,1687.0,165.0
6316,1415.0,150.0
6317,1245.0,121.0
6318,1594.0,79.0
6319,1890.0,34.0
6320,1722.0,-2.0
6321,1417.0,-25.0
6322,1297.0,-40.0
6323,1672.0,-56.0
6324,2008.0,-73.0
6325,1851.0,-91.0
6326,1531.0,-111.0
6327,1378.0,-137.0
6328,1688.0,-165.0
6329,2032.0,-188.0
6330,1961.0,-194.0
6331,1707.0,-184.0
6332,1422.0,-167.0
6333,1647.0,-153.0
6334,1964.0,-144.0
6335,1748.0,-134.0
6336,1243.0,-111.0
6337,1495.0,-103.0
6338,1737.0,-96.0
6339,1666.0,-84.0
6340,1308.0,-69.0
6341,1052.0,-56.0
6342,1268.0,-51.0
6343,1586.0,-52.0
6344,1511.0,-57.0
6345,1232.0,-66.0
6346,967.0,-86.0
6347,1223.0,-123.0
6348,1637.0,-172.0
6349,1624.0,-222.0
6350,1316.0,-265.0
6351,971.0,-302.0
6352,1172.0,-336.0
6353,1548.0,-367.0
6354,1583.0,-390.0
6355,1364.0,-407.0
6356,1075.0,-422.0
6357,1223.0,-438.0
6358,1587.0,-451.0
6359,1557.0,-449.0
6360,1398.0,-430.0
6361,1107.0,-397.0
6362,1267.0,-362.0
6363,1659.0,-329.0
6364,1627.0,-299.0
6365,1366.0,-271.0
6366,1041.0,-249.0
6367,1743.0,-208.0
6368,1512.0,-183.0
6369,1117.0,-154.0
6370,1201.0,-130.0
6371,1670.0,-113.0
6372,1815.0,-99.0
6373,1578.0,-83.0
6374,1240.0,-70.0
6375,1296.0,-63.0
6376,1714.0,-62.0
6377,1768.0,-60.0
6378,1619.0,-52.0
6379,1232.0,-39.0
6380,1304.0,-26.0
6381,1718.0,-16.0
6382,1856.0,-5.0
6383,1625.0,8.0
6384,1219.0,22.0
6385,1294.0,30.0
6386,1780.0,33.0
6387,1831.0,36.0
6388,1568.0,46.0
6389,1179.0,58.0
6390,1183.0,65.0
6391,1740.0,63.0
6392,1939.0,57.0
6393,1723.0,54.0
6394,1305.0,54.0
6395,1171.0,52.0
6396,1556.0,46.0
6397,1710.0,43.0
6398,1526.0,44.0
6399,1547.0,-36.0
6400,1821.0,-69.0
6401,1706.0,-88.0
6402,1420.0,-90.0
6403,1243.0,-80.0
6404,1658.0,-65.0
6405,1835.0,-47.0
6406,1792.0,-27.0
6407,1636.0,-10.0
6408,1543.0,0.0
6409,1984.0,-2.0
6410,2206.0,-7.0
6411,1986.0,-8.0
6412,1549.0,-1.0
6413,1192.0,10.0
6414,1333.0,22.0
6415,1439.0,37.0
6416,1271.0,57.0
6417,1005.0,78.0
6418,988.0,96.0
6419,1424.0,112.0
6420,1734.0,133.0
6421,1679.0,167.0
6422,1415.0,212.0
6423,2067.0,-139.0
6424,1991.0,-47.0
6425,1616.0,102.0
6426,2107.0,117.0
6427,2059.0,136.0
6428,1779.0,164.0
6429,1469.0,196.0
6430,1614.0,221.0
6431,2052.0,236.0
6432,2103.0,241.0
6433,1949.0,235.0
6434,1622.0,214.0
6435,1709.0,174.0
6436,2040.0,123.0
6437,2167.0,74.0
6438,1952.0,38.0
6439,1611.0,17.0
6440,1757.0,6.0
6441,2170.0,3.0
6442,2213.0,8.0
6443,2036.0,20.0
6444,1631.0,31.0
6445,1697.0,36.0
6446,2089.0,35.0
6447,2132.0,35.0
6448,1891.0,41.0
6449,1534.0,50.0
6450,1608.0,53.0
6451,2007.0,49.0
6452,2038.0,44.0
6453,1743.0,42.0
6454,1327.0,44.0
6455,1362.0,43.0
6456,1759.0,38.0
6457,1735.0,29.0
6458,1481.0,19.0
6459,1083.0,3.0
6460,1150.0,-23.0
6461,1512.0,-57.0
6462,1544.0,-89.0
6463,1360.0,-112.0
6464,992.0,-129.0
6465,1014.0,-146.0
6466,1448.0,-169.0
6467,1609.0,-196.0
6468,1416.0,-224.0
6469,1055.0,-255.0
6470,1024.0,-291.0
6471,1057.0,-380.0
6472,1464.0,-375.0
6473,1628.0,-362.0
6474,1561.0,-336.0
6475,1152.0,-301.0
6476,1066.0,-262.0
6477,1500.0,-223.0
6478,1716.0,-181.0
6479,1601.0,-135.0
6480,1230.0,-88.0
6481,1094.0,-49.0
6482,1470.0,-22.0
6483,1676.0,-3.0
6484,1552.0,15.0
6485,1147.0,35.0
6486,1042.0,51.0
6487,1435.0,62.0
6488,1699.0,73.0
6489,1543.0,88.0
6490,1202.0,108.0
6491,1099.0,123.0
6492,1505.0,130.0
6493,1753.0,132.0
6494,1582.0,133.0
6495,1281.0,133.0
6496,1104.0,126.0
6497,1441.0,112.0
6498,1849.0,94.0
6499,1780.0,81.0
6500,1464.0,77.0
6501,1218.0,76.0
6502,1471.0,76.0
6503,1757.0,80.0
6504,1707.0,92.0
6505,1484.0,109.0
6506,1277.0,123.0
6507,1578.0,129.0
6508,1951.0,130.0
6509,1800.0,133.0
6510,1503.0,143.0
6511,1249.0,157.0
6512,1481.0,171.0
6513,1865.0,184.0
6514,1885.0,197.0
6515,1601.0,207.0
6516,1360.0,207.0
6517,1643.0,194.0
6518,2199.0,111.0
6519,2008.0,124.0
6520,1749.0,141.0
6521,2019.0,151.0
6522,2420.0,153.0
6523,2420.0,151.0
6524,2384.0,151.0
6525,2228.0,153.0
6526,2425.0,156.0
6527,2419.0,162.0
6528,2423.0,174.0
6529,2421.0,193.0
6530,2420.0,210.0
6531,2356.0,220.0
6532,2296.0,222.0
6533,1835.0,231.0
6534,1625.0,244.0
6535,1783.0,264.0
6536,2116.0,288.0
6537,2208.0,314.0
6538,2118.0,336.0
6539,1803.0,344.0
6540,1877.0,335.0
6541,2319.0,306.0
6542,2396.0,262.0
6543,2182.0,202.0
6544,1905.0,122.0
6545,1971.0,19.0
6546,2407.0,-101.0
6547,2416.0,-225.0
6548,2375.0,-334.0
6549,2058.0,-410.0
6550,2128.0,-444.0
6551,2420.0,-434.0
6552,2416.0,-386.0
6553,2343.0,-3.0
6554,2418.0,-21.0
6555,2421.0,-47.0
6556,2425.0,-73.0
6557,2422.0,-92.0
6558,2417.0,-105.0
6559,2424.0,-111.0
6560,2426.0,-110.0
6561,2427.0,-105.0
6562,2424.0,-99.0
6563,2426.0,-96.0
6564,2413.0,-99.0
6565,2421.0,-103.0
6566,2420.0,-106.0
6567,2421.0,-107.0
6568,2415.0,-106.0
6569,2424.0,-104.0
6570,2423.0,-102.0
6571,2418.0,-100.0
6572,2368.0,-99.0
6573,2186.0,-102.0
6574,2400.0,-107.0
6575,2417.0,-114.0
6576,2383.0,-122.0
6577,2098.0,-130.0
6578,2010.0,-265.0
6579,1922.0,-306.0
6580,1614.0,-463.0
6581,1996.0,-516.0
6582,2002.0,-556.0
6583,1760.0,-578.0
6584,1458.0,-585.0
6585,1665.0,-582.0
6586,2010.0,-568.0
6587,1990.0,-539.0
6588,1777.0,-493.0
6589,1490.0,-437.0
6590,1718.0,-379.0
6591,2084.0,-322.0
6592,2118.0,-263.0
6593,1915.0,-203.0
6594,1571.0,-147.0
6595,1699.0,-101.0
6596,2053.0,-62.0
6597,2065.0,-26.0
6598,1868.0,9.0
6599,2229.0,193.0
6600,2231.0,188.0
6601,2055.0,197.0
6602,1829.0,249.0
6603,2171.0,279.0
6604,2283.0,308.0
6605,2179.0,333.0
6606,1780.0,345.0
6607,1780.0,341.0
6608,2131.0,321.0
6609,2193.0,296.0
6610,1997.0,275.0
6611,1747.0,259.0
6612,1792.0,246.0
6613,2118.0,235.0
6614,2155.0,229.0
6615,1999.0,230.0
6616,1637.0,232.0
6617,1571.0,230.0
6618,1996.0,220.0
6619,2171.0,207.0
6620,2022.0,194.0
6621,1612.0,179.0
6622,1533.0,159.0
6623,1884.0,136.0
6624,2056.0,115.0
6625,1544.0,99.0
6626,1478.0,94.0
6627,1863.0,83.0
6628,2094.0,67.0
6629,2023.0,53.0
6630,1712.0,40.0
6631,1611.0,27.0
6632,1998.0,15.0
6633,2330.0,8.0
6634,2294.0,7.0
6635,2058.0,9.0
6636,1842.0,5.0
6637,1960.0,-8.0
6638,1870.0,-24.0
6639,1470.0,-31.0
6640,1041.0,-25.0
6641,925.0,-8.0
6642,1401.0,14.0
6643,1792.0,45.0
6644,1856.0,87.0
6645,1613.0,137.0
6646,1479.0,189.0
6647,1860.0,237.0
6648,2091.0,293.0
6649,1776.0,275.0
6650,1584.0,204.0
6651,1946.0,79.0
6652,2223.0,-80.0
6653,2111.0,-236.0
6654,1885.0,-350.0
6655,1599.0,-397.0
6656,1985.0,-368.0
6657,2308.0,-272.0
6658,2246.0,-132.0
6659,1780.0,131.0
6660,2025.0,199.0
6661,2335.0,222.0
6662,2336.0,219.0
6663,2135.0,211.0
6664,1965.0,207.0
6665,2185.0,210.0
6666,2387.0,222.0
6667,2321.0,242.0
6668,2153.0,265.0
6669,1893.0,281.0
6670,2303.0,277.0
6671,2352.0,266.0
6672,2083.0,256.0
6673,1754.0,246.0
6674,1941.0,234.0
6675,2228.0,224.0
6676,2154.0,220.0
6677,1928.0,221.0
6678,1661.0,221.0
6679,1862.0,211.0
6680,2182.0,190.0
6681,2086.0,162.0
6682,1794.0,133.0
6683,1475.0,101.0
6684,1730.0,67.0
6685,2000.0,32.0
6686,1894.0,1.0
6687,1623.0,-26.0
6688,1278.0,-54.0
6689,1407.0,-86.0
6690,1740.0,-120.0
6691,1719.0,-148.0
6692,1447.0,-165.0
6693,1067.0,-177.0
6694,1185.0,-188.0
6695,1515.0,-203.0
6696,1535.0,-217.0
6697,1321.0,-230.0
6698,927.0,-246.0
6699,961.0,-270.0
6700,1192.0,-343.0
6701,864.0,-359.0
6702,906.0,-376.0
6703,1215.0,-393.0
6704,1280.0,-406.0
6705,1029.0,-410.0
6706,740.0,-409.0
6707,776.0,-408.0
6708,1159.0,-410.0
6709,1251.0,-408.0
6710,1094.0,-401.0
6711,806.0,-389.0
6712,812.0,-376.0
6713,1187.0,-363.0
6714,1297.0,-346.0
6715,1150.0,-321.0
6716,799.0,-294.0
6717,811.0,-271.0
6718,1252.0,-256.0
6719,1377.0,-242.0
6720,1195.0,-224.0
6721,895.0,-200.0
6722,1341.0,-102.0
6723,1163.0,-58.0
6724,856.0,-13.0
6725,834.0,23.0
6726,1185.0,49.0
6727,1307.0,70.0
6728,1187.0,92.0
6729,858.0,117.0
6730,698.0,142.0
6731,1020.0,163.0
6732,1247.0,185.0
6733,1148.0,207.0
6734,850.0,225.0
6735,689.0,231.0
6736,1051.0,225.0
6737,1203.0,213.0
6738,1174.0,203.0
6739,918.0,197.0
6740,857.0,192.0
6741,1220.0,184.0
6742,1540.0,175.0
6743,1481.0,167.0
6744,1220.0,160.0
6745,1010.0,151.0
6746,1364.0,139.0
6747,1666.0,129.0
6748,1590.0,128.0
6749,1328.0,136.0
6750,1282.0,148.0
6751,1658.0,160.0
6752,1925.0,177.0
6753,1842.0,205.0
6754,1611.0,246.0
6755,1454.0,294.0
6756,1669.0,341.0
6757,1948.0,383.0
6758,1984.0,418.0
6759,1832.0,444.0
6760,1640.0,457.0
6761,1958.0,457.0
6762,2288.0,455.0
6763,2252.0,462.0
6764,2072.0,481.0
6765,1913.0,506.0
6766,2149.0,526.0
6767,2361.0,534.0
6768,2257.0,531.0
6769,2009.0,517.0
6770,1750.0,493.0
6771,1888.0,463.0
6772,2177.0,436.0
6773,2164.0,425.0
6774,2026.0,431.0
6775,1738.0,448.0
6776,2052.0,463.0
6777,2357.0,472.0
6778,2252.0,471.0
6779,1883.0,458.0
6780,1314.0,428.0
6781,1238.0,375.0
6782,1365.0,306.0
6783,1226.0,229.0
6784,1036.0,152.0
6785,857.0,80.0
6786,1145.0,17.0
6787,1510.0,-28.0
6788,1463.0,-52.0
6789,1255.0,-56.0
6790,902.0,-54.0
6791,1056.0,-68.0
6792,1488.0,-117.0
6793,1527.0,-209.0
6794,1253.0,-342.0
6795,907.0,-508.0
6796,1040.0,-683.0
6797,1399.0,-835.0
6798,1431.0,-929.0
6799,1241.0,-950.0
6800,889.0,-903.0
6801,980.0,-816.0
6802,1296.0,-716.0
6803,1164.0,-253.0
6804,869.0,-245.0
6805,890.0,-246.0
6806,1304.0,-254.0
6807,1423.0,-261.0
6808,1185.0,-260.0
6809,779.0,-251.0
6810,743.0,-240.0
6811,1098.0,-229.0
6812,1291.0,-215.0
6813,1098.0,-197.0
6814,711.0,-178.0
6815,604.0,-162.0
6816,940.0,-149.0
6817,460.0,-66.0
6818,366.0,-33.0
6819,747.0,-12.0
6820,928.0,-5.0
