sample,raw,filtered
0,-19.0,-344.0
1,-23.0,63.0
2,520.0,998.0
3,1220.0,2029.0
4,1805.0,2576.0
5,2235.0,2273.0
6,2229.0,1125.0
7,1852.0,-587.0
8,-23.0,-8068.0
9,-20.0,-8432.0
10,-20.0,-7270.0
11,-25.0,-4121.0
12,-20.0,892.0
13,-19.0,6962.0
14,-24.0,12764.0
15,-25.0,16871.0
16,-25.0,18238.0
17,2226.0,16564.0
18,2230.0,12368.0
19,2233.0,6728.0
20,2230.0,866.0
21,2234.0,-4197.0
22,2229.0,-9829.0
23,2228.0,-8768.0
24,2232.0,-7178.0
25,2234.0,-5808.0
26,2234.0,-5216.0
27,2236.0,-5598.0
28,2235.0,-6687.0
29,2240.0,-7786.0
30,2231.0,-8020.0
31,2231.0,-6719.0
32,2235.0,-3755.0
33,2230.0,367.0
34,2234.0,4769.0
35,2225.0,8571.0
36,2180.0,11123.0
37,1694.0,12111.0
38,1288.0,11587.0
39,1103.0,9916.0
40,1073.0,7579.0
41,1103.0,4996.0
42,1136.0,2468.0
43,1135.0,231.0
44,2235.0,252.0
45,2237.0,1862.0
46,2233.0,3247.0
47,2233.0,4048.0
48,2235.0,3925.0
49,2238.0,2662.0
50,2229.0,299.0
51,2228.0,-2812.0
52,2236.0,-6093.0
53,2226.0,-8872.0
54,2229.0,-10542.0
55,2220.0,-10711.0
56,1797.0,-9310.0
57,1329.0,-6634.0
58,1095.0,-3240.0
59,1038.0,230.0
60,1067.0,3227.0
61,1113.0,5358.0
62,1123.0,6415.0
63,1106.0,6409.0
64,1090.0,5580.0
65,1143.0,4335.0
66,-25.0,2321.0
67,-19.0,2106.0
68,-24.0,2458.0
69,-23.0,3127.0
70,-19.0,3701.0
71,-28.0,3730.0
72,148.0,2921.0
73,695.0,1308.0
74,1083.0,-704.0
75,1236.0,-2508.0
76,1235.0,-3556.0
77,1223.0,-3568.0
78,1126.0,-2616.0
79,1165.0,-1084.0
80,1213.0,456.0
81,1215.0,1422.0
82,1191.0,1392.0
83,1170.0,237.0
84,1156.0,-1850.0
85,919.0,-4446.0
86,1153.0,8852.0
87,1185.0,8465.0
88,1179.0,7324.0
89,1178.0,5165.0
90,1160.0,1985.0
91,1130.0,-1815.0
92,1326.0,-5515.0
93,2231.0,-8316.0
94,2235.0,-9633.0
95,2128.0,-9261.0
96,1245.0,-7408.0
97,1080.0,-4609.0
98,1264.0,-1528.0
99,1708.0,1260.0
100,2236.0,3933.0
101,2231.0,2210.0
102,2232.0,122.0
103,2168.0,-1675.0
104,1688.0,-2592.0
105,1289.0,-2338.0
106,1124.0,-1069.0
107,1096.0,639.0
108,1099.0,2022.0
109,1144.0,2474.0
110,1176.0,1829.0
111,1167.0,397.0
112,1177.0,-1198.0
113,1274.0,-1199.0
114,1270.0,849.0
115,2177.0,3249.0
116,2236.0,5348.0
117,2234.0,6623.0
118,2229.0,6789.0
119,2231.0,5796.0
120,2223.0,3814.0
121,2080.0,1223.0
122,1589.0,-1477.0
123,1258.0,-3828.0
124,1104.0,-5557.0
125,1066.0,-6611.0
126,1053.0,-7094.0
127,1090.0,-7161.0
128,1060.0,-6898.0
129,1021.0,-6268.0
130,1011.0,-5136.0
131,1079.0,-3365.0
132,1120.0,-955.0
133,1137.0,1887.0
134,764.0,4788.0
135,795.0,9538.0
136,1084.0,8784.0
137,1078.0,6869.0
138,1028.0,4149.0
139,1027.0,1093.0
140,1075.0,-1800.0
141,1082.0,-4025.0
142,1048.0,-5158.0
143,1046.0,-5043.0
144,1092.0,-3904.0
145,1089.0,-2256.0
146,1111.0,-707.0
147,1126.0,246.0
148,1113.0,353.0
149,1101.0,-325.0
150,1106.0,-1443.0
151,1661.0,-2499.0
152,2207.0,-3075.0
153,957.0,-2985.0
154,-25.0,-2286.0
155,86.0,-1201.0
156,1547.0,-26.0
157,2223.0,973.0
158,2231.0,1657.0
159,2229.0,1967.0
160,2229.0,1844.0
161,2232.0,1272.0
162,2233.0,441.0
163,2235.0,-235.0
164,2230.0,-366.0
165,2232.0,143.0
166,2231.0,1007.0
167,2229.0,1676.0
168,2232.0,-1809.0
169,2234.0,-4267.0
170,2235.0,-6082.0
171,2230.0,-6552.0
172,2232.0,-5514.0
173,2232.0,-3287.0
174,2235.0,-469.0
175,2229.0,2248.0
176,2233.0,4264.0
177,1879.0,5286.0
178,1407.0,5407.0
179,1153.0,4924.0
180,1074.0,4079.0
181,1077.0,2969.0
182,1110.0,1675.0
183,1133.0,378.0
184,1140.0,-683.0
185,936.0,-1327.0
186,-20.0,-1475.0
187,-21.0,-1123.0
188,-19.0,-305.0
189,-20.0,881.0
190,808.0,4330.0
191,1095.0,4374.0
192,1181.0,3597.0
193,1172.0,2257.0
194,1152.0,816.0
195,1124.0,-258.0
196,1120.0,-687.0
197,1122.0,-497.0
198,1136.0,-36.0
199,1126.0,151.0
200,1128.0,-423.0
201,1122.0,-1926.0
202,1136.0,-4093.0
203,1148.0,-6343.0
204,1066.0,-8018.0
205,761.0,-8599.0
206,743.0,-7848.0
207,1396.0,-5887.0
208,2223.0,-3144.0
209,2223.0,-182.0
210,2228.0,2480.0
211,2234.0,4473.0
212,2232.0,5599.0
213,2229.0,5865.0
214,2232.0,5475.0
215,2238.0,4693.0
216,2229.0,3667.0
217,2229.0,2389.0
218,2236.0,795.0
219,2231.0,-1098.0
220,2231.0,-3120.0
221,2233.0,-4940.0
222,2231.0,-6137.0
223,2231.0,-3401.0
224,2235.0,-869.0
225,2235.0,1686.0
226,2233.0,3791.0
227,2233.0,5131.0
228,2233.0,5598.0
229,2231.0,5300.0
230,2232.0,4476.0
231,2227.0,3376.0
232,2231.0,2174.0
233,2223.0,999.0
234,2230.0,-21.0
235,2233.0,-759.0
236,2240.0,-1138.0
237,2230.0,-1187.0
238,2238.0,-1011.0
239,2235.0,-740.0
240,2234.0,-477.0
241,2233.0,-275.0
242,2239.0,-149.0
243,2229.0,-90.0
244,2225.0,-76.0
245,2230.0,-112.0
246,2234.0,-136.0
247,2231.0,-156.0
248,2235.0,-167.0
249,2236.0,-168.0
250,2231.0,-157.0
251,2231.0,-135.0
252,2231.0,-105.0
253,2240.0,-69.0
254,2229.0,-33.0
255,2236.0,-3.0
256,2231.0,16.0
257,2238.0,22.0
258,2235.0,15.0
259,2231.0,-2.0
260,2050.0,-24.0
261,1144.0,-43.0
262,-7.0,-54.0
263,-16.0,-54.0
264,-23.0,-45.0
265,-24.0,-30.0
266,-24.0,-24.0
267,-24.0,-61.0
268,-21.0,-167.0
269,-23.0,-275.0
270,-23.0,-156.0
271,-21.0,500.0
272,-21.0,1888.0
273,-25.0,3930.0
274,-24.0,6230.0
275,-24.0,8147.0
276,-23.0,8980.0
277,-25.0,8216.0
278,-23.0,5759.0
279,-27.0,2019.0
280,-19.0,-2225.0
281,21.0,-6117.0
282,516.0,-8988.0
283,944.0,-10474.0
284,1136.0,-10548.0
285,1177.0,-9472.0
286,1143.0,-7670.0
287,1117.0,-5550.0
288,1111.0,-3407.0
289,1106.0,-1444.0
290,1129.0,133.0
291,937.0,1090.0
292,433.0,1244.0
293,-16.0,578.0
294,-24.0,-711.0
295,-24.0,-2267.0
296,-25.0,-3646.0
297,-25.0,-4433.0
298,-21.0,-4350.0
299,-24.0,-3338.0
300,-23.0,-1546.0
301,-22.0,748.0
302,-16.0,7542.0
303,-22.0,8813.0
304,-23.0,9200.0
305,-15.0,8579.0
306,-29.0,6954.0
307,-26.0,4504.0
308,-19.0,1595.0
309,-24.0,-1279.0
310,-25.0,-3642.0
311,-28.0,-5170.0
312,-16.0,-5753.0
313,-22.0,-5500.0
314,-24.0,-4661.0
315,-20.0,-3531.0
316,-27.0,-2346.0
317,-19.0,-1252.0
318,-22.0,-338.0
319,-27.0,336.0
320,-20.0,731.0
321,-25.0,855.0
322,-22.0,773.0
323,-23.0,580.0
324,-16.0,84.0
325,-22.0,35.0
326,-25.0,32.0
327,-18.0,55.0
328,-22.0,88.0
329,-26.0,119.0
330,-24.0,143.0
331,-24.0,159.0
332,-26.0,167.0
333,-22.0,168.0
334,-20.0,165.0
335,-25.0,160.0
336,-25.0,156.0
337,-25.0,154.0
338,-22.0,157.0
339,-22.0,165.0
340,-22.0,177.0
341,-22.0,190.0
342,-22.0,200.0
343,-22.0,206.0
344,493.0,206.0
345,2137.0,200.0
346,2231.0,192.0
347,2229.0,175.0
348,2223.0,173.0
349,2227.0,198.0
350,2231.0,291.0
351,2233.0,444.0
352,2227.0,483.0
353,2229.0,90.0
354,2226.0,-1009.0
355,2232.0,-2857.0
356,1884.0,-5169.0
357,1079.0,-7362.0
358,-24.0,4948.0
359,-22.0,8123.0
360,-21.0,10017.0
361,-18.0,10719.0
362,-23.0,10699.0
363,-25.0,10525.0
364,-22.0,10536.0
365,-19.0,10667.0
366,-23.0,10515.0
367,-20.0,9589.0
368,-20.0,7583.0
369,-15.0,4526.0
370,-24.0,792.0
371,-25.0,-3031.0
372,-24.0,-6331.0
373,-26.0,-8640.0
374,-21.0,-9718.0
375,-26.0,-9581.0
376,-26.0,-8480.0
377,-16.0,-6788.0
378,-21.0,-4865.0
379,-26.0,-2974.0
380,-19.0,-1303.0
381,-25.0,-3.0
382,-28.0,813.0
383,-16.0,715.0
384,-23.0,329.0
385,-22.0,-2.0
386,-21.0,-226.0
387,-17.0,-340.0
388,-26.0,-368.0
389,-20.0,-343.0
390,-21.0,-293.0
391,-26.0,-239.0
392,-21.0,-194.0
393,-23.0,-162.0
394,-27.0,-144.0
395,-25.0,-138.0
396,-26.0,-138.0
397,-16.0,-140.0
398,-29.0,-139.0
399,-20.0,-134.0
400,-23.0,-124.0
401,-22.0,-110.0
402,-19.0,-96.0
403,-22.0,-82.0
404,-21.0,-70.0
405,-24.0,-60.0
406,-23.0,-55.0
407,-23.0,-53.0
408,-23.0,-54.0
409,-25.0,-58.0
410,-25.0,-64.0
411,-22.0,-69.0
412,-26.0,-72.0
413,-22.0,-70.0
414,-22.0,-64.0
415,-21.0,-55.0
416,-19.0,-43.0
417,-27.0,-29.0
418,-18.0,-15.0
419,-22.0,-4.0
420,-16.0,3.0
421,-25.0,8.0
422,-25.0,9.0
423,-22.0,6.0
424,-27.0,0.0
425,-16.0,-7.0
426,-20.0,-13.0
427,-22.0,-18.0
428,698.0,-19.0
429,2169.0,-18.0
430,2223.0,-14.0
431,2229.0,-6.0
432,2231.0,3.0
433,2232.0,19.0
434,2232.0,63.0
435,2234.0,173.0
436,2235.0,320.0
437,2229.0,312.0
438,2226.0,-162.0
439,2231.0,-1342.0
440,2237.0,-3211.0
441,2232.0,-5436.0
442,2231.0,-7412.0
443,2228.0,-8426.0
444,2227.0,-7897.0
445,2233.0,-5630.0
446,2233.0,-1950.0
447,2232.0,2386.0
448,1905.0,6492.0
449,1161.0,9637.0
450,704.0,11396.0
451,351.0,11677.0
452,96.0,8901.0
453,586.0,6692.0
454,934.0,4391.0
455,815.0,2221.0
456,446.0,440.0
457,450.0,-627.0
458,1014.0,-710.0
459,1486.0,264.0
460,1496.0,2080.0
461,1193.0,4218.0
462,1081.0,5947.0
463,1705.0,5559.0
464,1933.0,3042.0
465,2123.0,-530.0
466,2229.0,-4444.0
467,2229.0,-7971.0
468,2223.0,-10521.0
469,2227.0,-11751.0
470,2231.0,-11628.0
471,2232.0,-10387.0
472,2229.0,-8382.0
473,2237.0,-5979.0
474,2232.0,-3547.0
475,2235.0,-1446.0
476,2234.0,55.0
477,2236.0,894.0
478,2237.0,1212.0
479,2235.0,1269.0
480,2233.0,1331.0
481,2230.0,1606.0
482,2231.0,2172.0
483,2231.0,2920.0
484,2229.0,3594.0
485,2229.0,3450.0
486,2227.0,2830.0
487,2231.0,2126.0
488,2225.0,1402.0
489,2227.0,703.0
490,2229.0,90.0
491,1911.0,-371.0
492,1426.0,-647.0
493,1148.0,-742.0
494,1072.0,-704.0
495,1085.0,-597.0
496,1120.0,-481.0
497,1133.0,-401.0
498,1035.0,-387.0
499,789.0,-428.0
500,744.0,-444.0
501,946.0,-295.0
502,861.0,152.0
503,496.0,937.0
504,253.0,1948.0
505,577.0,2923.0
506,1039.0,3530.0
507,777.0,1281.0
508,1261.0,-513.0
509,1746.0,-2286.0
510,1784.0,-3657.0
511,1392.0,-4391.0
512,1133.0,-4493.0
513,1252.0,-4179.0
514,1530.0,-3729.0
515,1507.0,-3348.0
516,1171.0,-3152.0
517,957.0,-3202.0
518,1179.0,-3496.0
519,1543.0,-3926.0
520,1614.0,-4287.0
521,1233.0,-4366.0
522,939.0,-4015.0
523,1078.0,-3158.0
524,1419.0,-1795.0
525,1469.0,-55.0
526,1139.0,1768.0
527,865.0,3303.0
528,1414.0,4098.0
529,1090.0,3210.0
530,794.0,2071.0
531,858.0,949.0
532,1089.0,79.0
533,1028.0,-424.0
534,639.0,-594.0
535,324.0,-554.0
536,354.0,-414.0
537,341.0,-232.0
538,-20.0,-40.0
539,-16.0,111.0
540,-23.0,180.0
541,-18.0,191.0
542,-22.0,236.0
543,-15.0,387.0
544,-29.0,636.0
545,-19.0,929.0
546,-24.0,1259.0
547,-20.0,1651.0
548,-22.0,2054.0
549,-24.0,2307.0
550,-21.0,2236.0
551,-20.0,1778.0
552,-25.0,991.0
553,-23.0,-26.0
554,-25.0,-1173.0
555,-25.0,-2301.0
556,-21.0,-3202.0
557,-22.0,-3695.0
558,-22.0,-3737.0
559,-23.0,411.0
560,-18.0,328.0
561,-20.0,280.0
562,-23.0,259.0
563,-16.0,263.0
564,-22.0,263.0
565,-28.0,258.0
566,-23.0,247.0
567,-24.0,233.0
568,-25.0,222.0
569,-23.0,215.0
570,-21.0,211.0
571,-25.0,211.0
572,-19.0,212.0
573,-16.0,214.0
574,-25.0,217.0
575,-22.0,222.0
576,-23.0,228.0
577,-20.0,234.0
578,-26.0,236.0
579,-20.0,234.0
580,-23.0,225.0
581,-24.0,209.0
582,-27.0,189.0
583,-23.0,168.0
584,-22.0,151.0
585,-22.0,140.0
586,-25.0,155.0
587,-19.0,163.0
588,-24.0,168.0
589,-16.0,169.0
590,-23.0,167.0
591,-24.0,161.0
592,-23.0,151.0
593,-18.0,139.0
594,-26.0,126.0
595,-25.0,114.0
596,-26.0,106.0
597,-24.0,100.0
598,-22.0,99.0
599,-21.0,100.0
600,-21.0,102.0
601,-27.0,105.0
602,-21.0,106.0
603,-19.0,105.0
604,-16.0,105.0
605,-20.0,105.0
606,168.0,105.0
607,599.0,103.0
608,767.0,98.0
609,1019.0,89.0
610,1470.0,78.0
611,2067.0,66.0
612,2222.0,63.0
613,2230.0,81.0
614,2223.0,120.0
615,2225.0,138.0
616,2223.0,54.0
617,2232.0,-216.0
618,2232.0,-747.0
619,2237.0,-1585.0
620,2232.0,-2714.0
621,2240.0,-3991.0
622,2231.0,-5143.0
623,2227.0,-5821.0
624,2227.0,-5710.0
625,2228.0,-4631.0
626,2231.0,-2603.0
627,2236.0,130.0
628,2235.0,3134.0
629,2236.0,5881.0
630,2233.0,7919.0
631,2233.0,8987.0
632,2235.0,6767.0
633,2234.0,5009.0
634,2229.0,3241.0
635,2237.0,1677.0
636,2233.0,431.0
637,2231.0,-447.0
638,2227.0,-955.0
639,2235.0,-1130.0
640,2232.0,-1056.0
641,2232.0,-847.0
642,2236.0,-611.0
643,2234.0,-420.0
644,2231.0,-305.0
645,2228.0,-265.0
646,2063.0,-281.0
647,390.0,-328.0
648,-22.0,-385.0
649,-23.0,-440.0
650,-24.0,-487.0
651,-22.0,-526.0
652,-23.0,-574.0
653,-25.0,-671.0
654,-24.0,-834.0
655,-21.0,-942.0
656,-25.0,-716.0
657,-25.0,132.0
658,-23.0,1701.0
659,-27.0,3782.0
660,-20.0,5868.0
661,-23.0,7272.0
662,-27.0,7344.0
663,-23.0,5728.0
664,-23.0,2552.0
665,-23.0,-1557.0
666,-28.0,-5730.0
667,-22.0,-9164.0
668,-26.0,-11330.0
669,-27.0,-12033.0
670,-20.0,-11402.0
671,-24.0,-9819.0
672,-16.0,-7742.0
673,-21.0,-5548.0
674,-15.0,-3481.0
675,-24.0,-1712.0
676,-25.0,-393.0
677,-20.0,469.0
678,-22.0,135.0
679,-25.0,-214.0
680,-24.0,-477.0
681,-21.0,-620.0
682,-18.0,-654.0
683,-22.0,-610.0
684,-29.0,-523.0
685,-18.0,-421.0
686,-25.0,-323.0
687,-17.0,-237.0
688,-20.0,-167.0
689,-23.0,-113.0
690,-23.0,-74.0
691,-20.0,-44.0
692,-21.0,-20.0
693,-17.0,3.0
694,-25.0,27.0
695,-21.0,52.0
696,-16.0,79.0
697,-16.0,106.0
698,-21.0,133.0
699,-20.0,160.0
700,-15.0,186.0
701,-21.0,212.0
702,-24.0,237.0
703,-26.0,261.0
704,-25.0,283.0
705,-22.0,301.0
706,-22.0,317.0
707,-26.0,331.0
708,-23.0,343.0
709,161.0,353.0
710,634.0,364.0
711,999.0,376.0
712,1580.0,393.0
713,2230.0,412.0
714,2226.0,431.0
715,2228.0,456.0
716,2227.0,498.0
717,2233.0,561.0
718,2235.0,611.0
719,2234.0,555.0
720,2232.0,247.0
721,2228.0,-474.0
722,2235.0,-1694.0
723,2230.0,-3304.0
724,2221.0,-4970.0
725,2231.0,-6196.0
726,2231.0,-6477.0
727,2070.0,-5480.0
728,1777.0,-3184.0
729,1467.0,84.0
730,927.0,3733.0
731,680.0,4400.0
732,855.0,4497.0
733,243.0,-365.0
734,575.0,-2938.0
735,749.0,-5168.0
736,555.0,-6607.0
737,277.0,-7075.0
738,340.0,-6664.0
739,702.0,-5612.0
740,860.0,-4179.0
741,615.0,-2618.0
742,268.0,-1177.0
743,279.0,-67.0
744,670.0,597.0
745,943.0,817.0
746,763.0,647.0
747,391.0,167.0
748,388.0,-494.0
749,740.0,-1156.0
750,964.0,-1635.0
751,787.0,-1841.0
752,462.0,-1795.0
753,469.0,-1568.0
754,835.0,-1220.0
755,638.0,-186.0
756,669.0,-112.0
757,1024.0,-150.0
758,1274.0,-192.0
759,1152.0,-176.0
760,851.0,-125.0
761,863.0,-88.0
762,1203.0,-79.0
763,1536.0,-76.0
764,1428.0,-79.0
765,1110.0,-120.0
766,1078.0,-214.0
767,1426.0,-320.0
768,1693.0,-376.0
769,1535.0,-362.0
770,1185.0,-315.0
771,1123.0,-273.0
772,1444.0,-225.0
773,1715.0,-139.0
774,1588.0,-16.0
775,1232.0,93.0
776,1156.0,152.0
777,1458.0,190.0
778,1722.0,273.0
779,1606.0,435.0
780,1302.0,645.0
781,1222.0,846.0
782,1551.0,1016.0
783,1855.0,1160.0
784,1734.0,1265.0
785,1368.0,1283.0
786,1269.0,1179.0
787,1591.0,987.0
788,1379.0,432.0
789,1296.0,230.0
790,1592.0,7.0
791,1880.0,-180.0
792,1794.0,-293.0
793,1433.0,-344.0
794,1321.0,-360.0
795,1600.0,-329.0
796,1883.0,-216.0
797,1801.0,-27.0
798,1469.0,171.0
799,1336.0,304.0
800,1586.0,352.0
801,1854.0,355.0
802,1774.0,341.0
803,1447.0,291.0
804,1340.0,181.0
805,1642.0,39.0
806,1975.0,-69.0
807,1877.0,-113.0
808,1500.0,-119.0
809,1299.0,239.0
810,1505.0,343.0
811,1517.0,233.0
812,1327.0,54.0
813,1551.0,-179.0
814,1911.0,-395.0
815,1885.0,-537.0
816,1544.0,-605.0
817,1321.0,-628.0
818,1552.0,-609.0
819,1901.0,-523.0
820,1896.0,-373.0
821,1524.0,-217.0
822,1287.0,-129.0
823,1480.0,-128.0
824,1826.0,-165.0
825,1833.0,-187.0
826,1487.0,-189.0
827,1271.0,-195.0
828,1460.0,-205.0
829,1821.0,-180.0
830,1833.0,-98.0
831,1479.0,10.0
832,1252.0,93.0
833,1805.0,229.0
834,1466.0,275.0
835,1223.0,248.0
836,1401.0,135.0
837,1751.0,-12.0
838,1819.0,-134.0
839,1512.0,-220.0
840,1269.0,-298.0
841,1455.0,-367.0
842,1862.0,-385.0
843,2007.0,-325.0
844,1793.0,-218.0
845,1640.0,-132.0
846,1857.0,-92.0
847,2190.0,-73.0
848,2131.0,-46.0
849,1725.0,-30.0
850,1398.0,-71.0
851,1524.0,-180.0
852,1841.0,-319.0
853,1899.0,-457.0
854,1422.0,-1112.0
855,1773.0,-1296.0
856,1848.0,-1250.0
857,1518.0,-902.0
858,1210.0,-279.0
859,1336.0,527.0
860,1706.0,1401.0
861,1795.0,2184.0
862,1520.0,2688.0
863,1233.0,2763.0
864,1352.0,2395.0
865,1696.0,1720.0
866,1804.0,936.0
867,1538.0,195.0
868,1240.0,-427.0
869,1319.0,-887.0
870,1666.0,-1145.0
871,1784.0,-1193.0
872,1525.0,-1090.0
873,1242.0,-931.0
874,1316.0,-780.0
875,1674.0,-640.0
876,1270.0,-248.0
877,1389.0,-198.0
878,1765.0,-153.0
879,1907.0,-70.0
880,1656.0,39.0
881,1347.0,119.0
882,1430.0,132.0
883,1775.0,101.0
884,1934.0,69.0
885,1689.0,39.0
886,1359.0,-23.0
887,1399.0,-132.0
888,1746.0,-244.0
889,1955.0,-302.0
890,1696.0,-295.0
891,1350.0,-258.0
892,1368.0,-219.0
893,1710.0,-156.0
894,1910.0,-34.0
895,1676.0,134.0
896,1339.0,288.0
897,1366.0,380.0
898,1709.0,419.0
899,1896.0,443.0
900,1655.0,459.0
901,1277.0,435.0
902,1303.0,356.0
903,1664.0,260.0
904,1873.0,198.0
905,1631.0,177.0
906,1269.0,152.0
907,1248.0,85.0
908,1585.0,-1.0
909,1810.0,-55.0
910,1578.0,-55.0
911,1195.0,-33.0
912,1152.0,-25.0
913,1475.0,-22.0
914,1705.0,8.0
915,1483.0,61.0
916,1136.0,89.0
917,1069.0,60.0
918,1394.0,6.0
919,1623.0,-11.0
920,1434.0,25.0
921,1074.0,75.0
922,1016.0,93.0
923,1316.0,91.0
924,1583.0,108.0
925,1410.0,148.0
926,1040.0,164.0
927,994.0,120.0
928,1325.0,34.0
929,1573.0,-40.0
930,1389.0,-83.0
931,1202.0,-128.0
932,1467.0,-90.0
933,862.0,51.0
934,1166.0,32.0
935,1448.0,35.0
936,1321.0,79.0
937,1002.0,123.0
938,879.0,121.0
939,1151.0,84.0
940,1409.0,63.0
941,1295.0,86.0
942,964.0,122.0
943,843.0,125.0
944,1105.0,97.0
945,1394.0,70.0
946,1293.0,52.0
947,916.0,11.0
948,783.0,-79.0
949,1067.0,-186.0
950,1394.0,-238.0
951,1299.0,-202.0
952,948.0,-116.0
953,806.0,-40.0
954,1055.0,9.0
955,1363.0,59.0
956,1275.0,125.0
957,932.0,177.0
958,778.0,177.0
959,1016.0,127.0
960,1311.0,73.0
961,1289.0,38.0
962,955.0,-2.0
963,777.0,-79.0
964,1027.0,-174.0
965,1338.0,-224.0
966,1281.0,-190.0
967,917.0,-102.0
968,726.0,-16.0
969,937.0,43.0
970,1262.0,96.0
971,1252.0,151.0
972,927.0,175.0
973,750.0,129.0
974,975.0,28.0
975,1308.0,-66.0
976,1272.0,-103.0
977,957.0,-88.0
978,771.0,-51.0
979,991.0,0.0
980,1307.0,82.0
981,1292.0,191.0
982,970.0,270.0
983,800.0,249.0
984,975.0,127.0
985,1253.0,-31.0
986,1220.0,-159.0
987,887.0,-242.0
988,682.0,-301.0
989,904.0,-334.0
990,1212.0,-307.0
991,1207.0,-206.0
992,890.0,-76.0
993,689.0,22.0
994,911.0,79.0
995,1246.0,141.0
996,1277.0,248.0
997,939.0,375.0
998,699.0,460.0
999,874.0,474.0
1000,1505.0,-2.0
1001,1214.0,153.0
1002,1516.0,249.0
1003,1094.0,182.0
1004,751.0,-6.0
1005,855.0,-345.0
1006,1206.0,-781.0
1007,1296.0,-1213.0
1008,977.0,-1545.0
1009,674.0,-1683.0
1010,774.0,-1526.0
1011,1101.0,-981.0
1012,1180.0,-45.0
1013,893.0,1138.0
1014,610.0,2313.0
1015,702.0,3231.0
1016,1062.0,3733.0
1017,1192.0,3753.0
1018,921.0,3286.0
1019,627.0,2398.0
1020,697.0,1251.0
1021,1046.0,86.0
1022,1166.0,-875.0
1023,889.0,-1527.0
1024,1053.0,-1838.0
1025,1204.0,-1557.0
1026,914.0,-1210.0
1027,598.0,-901.0
1028,682.0,-676.0
1029,1035.0,-508.0
1030,1194.0,-347.0
1031,942.0,-192.0
1032,656.0,-85.0
1033,722.0,-50.0
1034,1056.0,-56.0
1035,1203.0,-55.0
1036,1076.0,-101.0
1037,1272.0,-90.0
1038,1034.0,-48.0
1039,754.0,-31.0
1040,800.0,-70.0
1041,1160.0,-129.0
1042,1336.0,-147.0
1043,1104.0,-112.0
1044,787.0,-64.0
1045,822.0,-41.0
1046,1152.0,-31.0
1047,765.0,424.0
1048,771.0,479.0
1049,1109.0,465.0
1050,1339.0,419.0
1051,1126.0,355.0
1052,782.0,247.0
1053,750.0,87.0
1054,1059.0,-74.0
1055,1272.0,-167.0
1056,1095.0,-166.0
1057,755.0,-113.0
1058,707.0,-60.0
1059,1048.0,-15.0
1060,1280.0,40.0
1061,1127.0,102.0
1062,783.0,129.0
1063,732.0,96.0
1064,1059.0,42.0
1065,1308.0,25.0
1066,1148.0,60.0
1067,786.0,100.0
1068,739.0,95.0
1069,1082.0,50.0
1070,1380.0,3.0
1071,1197.0,-33.0
1072,828.0,-88.0
1073,758.0,-178.0
1074,1061.0,-274.0
1075,1320.0,-314.0
1076,1181.0,-280.0
1077,818.0,-211.0
1078,728.0,-161.0
1079,1012.0,-136.0
1080,1281.0,-103.0
1081,1186.0,-51.0
1082,871.0,-9.0
1083,778.0,-5.0
1084,1056.0,-13.0
1085,1328.0,22.0
1086,1228.0,116.0
1087,880.0,221.0
1088,741.0,279.0
1089,1018.0,286.0
1090,1296.0,276.0
1091,1216.0,258.0
1092,880.0,197.0
1093,785.0,64.0
1094,1066.0,-110.0
1095,1283.0,-256.0
1096,1180.0,-326.0
1097,847.0,-330.0
1098,731.0,-294.0
1099,986.0,-217.0
1100,1291.0,-82.0
1101,1218.0,89.0
1102,861.0,222.0
1103,709.0,251.0
1104,996.0,186.0
1105,1292.0,101.0
1106,1212.0,56.0
1107,868.0,48.0
1108,728.0,46.0
1109,982.0,38.0
1110,1259.0,47.0
1111,1204.0,75.0
1112,856.0,84.0
1113,700.0,34.0
1114,937.0,-58.0
1115,1266.0,-133.0
1116,1218.0,-149.0
1117,877.0,-131.0
1118,721.0,-124.0
1119,970.0,-135.0
1120,1289.0,-124.0
1121,1238.0,-64.0
1122,874.0,17.0
1123,698.0,72.0
1124,952.0,84.0
1125,1277.0,83.0
1126,1258.0,88.0
1127,920.0,73.0
1128,713.0,2.0
1129,933.0,-108.0
1130,1255.0,-197.0
1131,1248.0,-216.0
1132,929.0,-179.0
1133,740.0,-132.0
1134,942.0,-93.0
1135,1252.0,-41.0
1136,1241.0,34.0
1137,899.0,98.0
1138,708.0,106.0
1139,933.0,63.0
1140,1277.0,23.0
1141,1271.0,26.0
1142,917.0,49.0
1143,691.0,43.0
1144,909.0,0.0
1145,1252.0,-35.0
1146,1252.0,-24.0
1147,899.0,20.0
1148,648.0,48.0
1149,839.0,42.0
1150,1210.0,28.0
1151,1241.0,32.0
1152,939.0,38.0
1153,691.0,9.0
1154,864.0,-46.0
1155,1223.0,-78.0
1156,1292.0,-44.0
1157,997.0,35.0
1158,760.0,102.0
1159,912.0,128.0
1160,1285.0,135.0
1161,1304.0,144.0
1162,962.0,136.0
1163,709.0,69.0
1164,858.0,-54.0
1165,1207.0,-183.0
1166,1298.0,-267.0
1167,1002.0,-306.0
1168,719.0,-336.0
1169,895.0,-366.0
1170,1295.0,-356.0
1171,1468.0,-267.0
1172,1300.0,-114.0
1173,1113.0,50.0
1174,1284.0,192.0
1175,1635.0,318.0
1176,1712.0,429.0
1177,1355.0,489.0
1178,960.0,446.0
1179,935.0,290.0
1180,1231.0,68.0
1181,1330.0,-175.0
1182,1033.0,-446.0
1183,725.0,-772.0
1184,785.0,-1126.0
1185,1102.0,-1404.0
1186,1183.0,-1471.0
1187,904.0,-1245.0
1188,636.0,-720.0
1189,732.0,49.0
1190,1063.0,973.0
1191,1197.0,1904.0
1192,915.0,2637.0
1193,1027.0,2346.0
1194,1194.0,1610.0
1195,951.0,800.0
1196,657.0,15.0
1197,740.0,-669.0
1198,1105.0,-1173.0
1199,1266.0,-1442.0
1200,1000.0,-1490.0
1201,681.0,-1388.0
1202,742.0,-1199.0
1203,1092.0,-946.0
1204,1270.0,-645.0
1205,687.0,-168.0
1206,720.0,-123.0
1207,1050.0,-180.0
1208,1231.0,-250.0
1209,1008.0,-280.0
1210,703.0,-272.0
1211,742.0,-240.0
1212,1086.0,-174.0
1213,1288.0,-56.0
1214,1066.0,88.0
1215,723.0,202.0
1216,768.0,278.0
1217,826.0,185.0
1218,1217.0,47.0
1219,1405.0,-76.0
1220,1188.0,-159.0
1221,847.0,-219.0
1222,841.0,-269.0
1223,1164.0,-281.0
1224,1378.0,-218.0
1225,1189.0,-99.0
1226,851.0,4.0
1227,814.0,32.0
1228,1140.0,-7.0
1229,1348.0,-61.0
1230,1160.0,-98.0
1231,810.0,-124.0
1232,749.0,-140.0
1233,1043.0,-110.0
1234,1298.0,4.0
1235,1098.0,185.0
1236,756.0,353.0
1237,712.0,446.0
1238,1019.0,464.0
1239,1238.0,451.0
1240,1054.0,431.0
1241,700.0,390.0
1242,645.0,315.0
1243,957.0,233.0
1244,1214.0,186.0
1245,1052.0,175.0
1246,706.0,157.0
1247,631.0,96.0
1248,920.0,9.0
1249,1184.0,-51.0
1250,1006.0,-63.0
1251,669.0,-59.0
1252,587.0,-75.0
1253,855.0,-105.0
1254,1119.0,-114.0
1255,979.0,-98.0
1256,621.0,-95.0
1257,519.0,-137.0
1258,805.0,-197.0
1259,1091.0,-216.0
1260,964.0,-171.0
1261,610.0,-99.0
1262,1091.0,24.0
1263,1010.0,84.0
1264,670.0,129.0
1265,564.0,122.0
1266,855.0,72.0
1267,1185.0,22.0
1268,1090.0,-4.0
1269,730.0,-31.0
1270,543.0,-88.0
1271,780.0,-163.0
1272,1086.0,-214.0
1273,1023.0,-226.0
1274,667.0,-234.0
1275,781.0,-365.0
1276,1088.0,-430.0
1277,1040.0,-433.0
1278,691.0,-375.0
1279,542.0,-276.0
1280,788.0,-133.0
1281,1089.0,73.0
1282,1046.0,327.0
1283,653.0,-75.0
1284,973.0,31.0
1285,964.0,162.0
1286,630.0,275.0
1287,437.0,313.0
1288,654.0,271.0
1289,995.0,197.0
1290,977.0,135.0
1291,611.0,78.0
1292,402.0,-2.0
1293,612.0,-98.0
1294,978.0,-161.0
1295,1008.0,-159.0
1296,678.0,-120.0
1297,433.0,-98.0
1298,602.0,-111.0
1299,981.0,-126.0
1300,1013.0,-107.0
1301,707.0,-65.0
1302,505.0,-35.0
1303,709.0,-29.0
1304,1051.0,-20.0
1305,1062.0,8.0
1306,652.0,-69.0
1307,986.0,1.0
1308,1056.0,104.0
1309,745.0,192.0
1310,463.0,211.0
1311,583.0,157.0
1312,935.0,96.0
1313,982.0,93.0
1314,651.0,151.0
1315,367.0,232.0
1316,507.0,306.0
1317,879.0,382.0
1318,980.0,470.0
1319,698.0,538.0
1320,421.0,532.0
1321,551.0,438.0
1322,903.0,305.0
1323,1025.0,197.0
1324,743.0,129.0
1325,458.0,68.0
1326,598.0,-5.0
1327,981.0,-78.0
1328,1167.0,-126.0
1329,965.0,-170.0
1330,744.0,-253.0
1331,960.0,-381.0
1332,1448.0,-496.0
1333,1629.0,-535.0
1334,1306.0,-492.0
1335,917.0,-415.0
1336,921.0,-346.0
1337,1183.0,-284.0
1338,1225.0,-223.0
1339,922.0,-201.0
1340,617.0,-285.0
1341,705.0,-505.0
1342,1060.0,-803.0
1343,1191.0,-1067.0
1344,555.0,-1134.0
1345,599.0,-812.0
1346,964.0,-191.0
1347,1122.0,693.0
1348,879.0,1670.0
1349,575.0,2482.0
1350,640.0,2911.0
1351,969.0,2883.0
1352,1145.0,2453.0
1353,902.0,1734.0
1354,587.0,862.0
1355,653.0,-5.0
1356,996.0,-702.0
1357,1190.0,-1124.0
1358,961.0,-1284.0
1359,639.0,-1278.0
1360,641.0,-1190.0
1361,992.0,-1042.0
1362,1219.0,-826.0
1363,1019.0,-569.0
1364,701.0,-339.0
1365,713.0,-184.0
1366,1061.0,-95.0
1367,1265.0,-35.0
1368,1072.0,10.0
1369,718.0,25.0
1370,693.0,9.0
1371,1032.0,-4.0
1372,1244.0,23.0
1373,1065.0,77.0
1374,742.0,101.0
1375,754.0,59.0
1376,1097.0,-22.0
1377,1328.0,-81.0
1378,1115.0,-87.0
1379,763.0,-57.0
1380,777.0,-15.0
1381,1120.0,46.0
1382,1381.0,148.0
1383,1211.0,264.0
1384,880.0,327.0
1385,855.0,287.0
1386,1187.0,165.0
1387,1452.0,34.0
1388,1290.0,-61.0
1389,936.0,-128.0
1390,876.0,-185.0
1391,1176.0,-215.0
1392,1440.0,-190.0
1393,1327.0,-123.0
1394,1027.0,-72.0
1395,966.0,-79.0
1396,1297.0,-122.0
1397,1549.0,-140.0
1398,1419.0,-106.0
1399,1076.0,-45.0
1400,990.0,11.0
1401,1298.0,69.0
1402,1423.0,245.0
1403,1099.0,288.0
1404,1007.0,235.0
1405,1310.0,104.0
1406,1591.0,-37.0
1407,1468.0,-140.0
1408,1112.0,-198.0
1409,1000.0,-223.0
1410,1282.0,-197.0
1411,1567.0,-94.0
1412,1473.0,67.0
1413,1154.0,219.0
1414,1053.0,294.0
1415,1312.0,291.0
1416,1588.0,257.0
1417,1479.0,226.0
1418,1119.0,187.0
1419,1006.0,119.0
1420,1282.0,43.0
1421,1557.0,5.0
1422,977.0,189.0
1423,1239.0,88.0
1424,1538.0,-10.0
1425,1461.0,-55.0
1426,1112.0,-54.0
1427,939.0,-43.0
1428,1206.0,-26.0
1429,1516.0,23.0
1430,1428.0,107.0
1431,1047.0,175.0
1432,881.0,167.0
1433,1133.0,82.0
1434,1460.0,-21.0
1435,1414.0,-95.0
1436,1077.0,-140.0
1437,882.0,-177.0
1438,1115.0,-198.0
1439,1440.0,-162.0
1440,1420.0,-54.0
1441,1066.0,84.0
1442,862.0,193.0
1443,1080.0,248.0
1444,1407.0,272.0
1445,1366.0,277.0
1446,1016.0,242.0
1447,821.0,138.0
1448,1031.0,-11.0
1449,1019.0,-167.0
1450,1356.0,-111.0
1451,1335.0,-8.0
1452,1024.0,104.0
1453,832.0,173.0
1454,1039.0,184.0
1455,1391.0,168.0
1456,1395.0,150.0
1457,1098.0,111.0
1458,878.0,20.0
1459,1060.0,-104.0
1460,1413.0,-196.0
1461,1453.0,-207.0
1462,1115.0,-161.0
1463,879.0,-117.0
1464,1055.0,-105.0
1465,1408.0,-106.0
1466,1431.0,-97.0
1467,1094.0,-91.0
1468,846.0,-120.0
1469,1016.0,-175.0
1470,1332.0,-203.0
1471,1343.0,-165.0
1472,1010.0,-81.0
1473,1322.0,166.0
1474,1037.0,248.0
1475,788.0,290.0
1476,947.0,281.0
1477,1290.0,260.0
1478,1360.0,271.0
1479,1024.0,301.0
1480,742.0,300.0
1481,886.0,245.0
1482,1246.0,165.0
1483,1338.0,90.0
1484,1026.0,8.0
1485,743.0,-113.0
1486,873.0,-271.0
1487,1209.0,-402.0
1488,1358.0,-449.0
1489,1139.0,-409.0
1490,922.0,-327.0
1491,1150.0,-232.0
1492,1618.0,-119.0
1493,1777.0,16.0
1494,1464.0,141.0
1495,1100.0,202.0
1496,1160.0,183.0
1497,1102.0,-44.0
1498,777.0,-2.0
1499,831.0,0.0
1500,1192.0,-31.0
1501,1385.0,-65.0
1502,1146.0,-93.0
1503,816.0,-136.0
1504,830.0,-190.0
1505,1169.0,-203.0
1506,1380.0,-128.0
1507,1189.0,18.0
1508,849.0,155.0
1509,841.0,210.0
1510,1178.0,183.0
1511,1403.0,119.0
1512,1207.0,49.0
1513,861.0,-27.0
1514,848.0,-108.0
1515,1192.0,-155.0
1516,1397.0,-130.0
1517,1211.0,-49.0
1518,1173.0,40.0
1519,1366.0,44.0
1520,1187.0,74.0
1521,828.0,96.0
1522,796.0,77.0
1523,1116.0,38.0
1524,1362.0,25.0
1525,1178.0,46.0
1526,709.0,125.0
1527,612.0,51.0
1528,916.0,-32.0
1529,1192.0,-61.0
1530,1056.0,-10.0
1531,690.0,81.0
1532,617.0,159.0
1533,922.0,209.0
1534,1187.0,242.0
1535,1069.0,252.0
1536,721.0,198.0
1537,615.0,54.0
1538,914.0,-137.0
1539,1179.0,-300.0
1540,1044.0,-389.0
1541,718.0,-421.0
1542,614.0,-430.0
1543,904.0,-415.0
1544,1180.0,-350.0
1545,1050.0,-238.0
1546,667.0,-126.0
1547,569.0,-58.0
1548,884.0,-26.0
1549,1183.0,15.0
1550,1054.0,85.0
1551,683.0,144.0
1552,567.0,149.0
1553,854.0,108.0
1554,1163.0,74.0
1555,1076.0,80.0
1556,711.0,102.0
1557,567.0,97.0
1558,852.0,66.0
1559,1128.0,46.0
1560,997.0,53.0
1561,656.0,57.0
1562,518.0,20.0
1563,767.0,-45.0
1564,1056.0,-86.0
1565,970.0,-78.0
1566,629.0,-52.0
1567,505.0,-54.0
1568,796.0,-77.0
1569,1115.0,-69.0
1570,1034.0,0.0
1571,674.0,98.0
1572,505.0,174.0
1573,751.0,215.0
1574,1077.0,247.0
1575,1021.0,278.0
1576,657.0,266.0
1577,488.0,171.0
1578,739.0,7.0
1579,1076.0,-161.0
1580,1046.0,-283.0
1581,707.0,-358.0
1582,516.0,-402.0
1583,737.0,-402.0
1584,1060.0,-320.0
1585,1067.0,-154.0
1586,752.0,35.0
1587,559.0,169.0
1588,784.0,219.0
1589,1099.0,213.0
1590,1090.0,183.0
1591,756.0,127.0
1592,570.0,32.0
1593,800.0,-78.0
1594,1168.0,-150.0
1595,1172.0,-157.0
1596,800.0,-130.0
1597,613.0,-121.0
1598,807.0,-138.0
1599,1143.0,-141.0
1600,1160.0,-100.0
1601,834.0,-35.0
1602,612.0,7.0
1603,810.0,10.0
1604,1131.0,1.0
1605,852.0,175.0
1606,570.0,176.0
1607,734.0,146.0
1608,1074.0,115.0
1609,1140.0,107.0
1610,845.0,104.0
1611,587.0,70.0
1612,757.0,1.0
1613,1115.0,-62.0
1614,1202.0,-88.0
1615,914.0,-94.0
1616,731.0,-117.0
1617,965.0,-163.0
1618,1438.0,-190.0
1619,1641.0,-159.0
1620,1434.0,-84.0
1621,1174.0,-20.0
1622,1273.0,0.0
1623,1570.0,-5.0
1624,1549.0,-4.0
1625,1139.0,-12.0
1626,784.0,-81.0
1627,863.0,-244.0
1628,1207.0,-481.0
1629,1277.0,-748.0
1630,1007.0,-1020.0
1631,720.0,-1266.0
1632,809.0,-1399.0
1633,1155.0,-1282.0
1634,1264.0,-815.0
1635,979.0,-27.0
1636,699.0,923.0
1637,815.0,1832.0
1638,1169.0,2531.0
1639,1289.0,2896.0
1640,978.0,2839.0
1641,671.0,2343.0
1642,1307.0,-338.0
1643,1043.0,-1005.0
1644,715.0,-1434.0
1645,815.0,-1636.0
1646,1161.0,-1613.0
1647,1306.0,-1383.0
1648,1052.0,-1016.0
1649,772.0,-618.0
1650,857.0,-271.0
1651,1234.0,4.0
1652,1382.0,214.0
1653,1133.0,340.0
1654,812.0,348.0
1655,872.0,249.0
1656,1234.0,119.0
1657,1406.0,40.0
1658,1165.0,29.0
1659,833.0,38.0
1660,868.0,23.0
1661,1202.0,-9.0
1662,1393.0,-23.0
1663,1165.0,-15.0
1664,818.0,-10.0
1665,842.0,-18.0
1666,1208.0,-6.0
1667,1392.0,57.0
1668,1149.0,155.0
1669,829.0,230.0
1670,887.0,247.0
1671,1231.0,235.0
1672,1401.0,240.0
1673,1193.0,267.0
1674,872.0,274.0
1675,1415.0,109.0
1676,1184.0,84.0
1677,852.0,47.0
1678,850.0,-24.0
1679,1185.0,-104.0
1680,1394.0,-143.0
1681,1186.0,-134.0
1682,821.0,-116.0
1683,807.0,-117.0
1684,1123.0,-110.0
1685,1330.0,-55.0
1686,1158.0,45.0
1687,836.0,136.0
1688,1459.0,173.0
1689,1271.0,187.0
1690,932.0,185.0
1691,903.0,147.0
1692,1242.0,100.0
1693,1496.0,90.0
1694,1301.0,113.0
1695,915.0,111.0
1696,864.0,34.0
1697,1193.0,-106.0
1698,1406.0,-254.0
1699,1222.0,-369.0
1700,870.0,-450.0
1701,803.0,-502.0
1702,1112.0,-493.0
1703,1364.0,-384.0
1704,1204.0,-184.0
1705,844.0,38.0
1706,758.0,220.0
1707,1069.0,354.0
1708,1353.0,471.0
1709,1219.0,574.0
1710,878.0,621.0
1711,924.0,67.0
1712,840.0,-60.0
1713,1134.0,-176.0
1714,1406.0,-236.0
1715,1297.0,-238.0
1716,942.0,-227.0
1717,827.0,-242.0
1718,1114.0,-270.0
1719,1399.0,-266.0
1720,1278.0,-219.0
1721,931.0,-166.0
1722,825.0,-150.0
1723,1139.0,-162.0
1724,1415.0,-155.0
1725,1295.0,-103.0
1726,943.0,-33.0
1727,811.0,18.0
1728,1079.0,58.0
1729,1355.0,118.0
1730,1255.0,205.0
1731,878.0,269.0
1732,734.0,258.0
1733,1053.0,177.0
1734,1377.0,86.0
1735,1319.0,25.0
1736,981.0,-14.0
1737,853.0,-60.0
1738,1119.0,-96.0
1739,1425.0,-75.0
1740,1348.0,19.0
1741,1004.0,137.0
1742,878.0,209.0
1743,1168.0,210.0
1744,1482.0,161.0
1745,1407.0,82.0
1746,1066.0,-45.0
1747,889.0,-228.0
1748,1140.0,-420.0
1749,1453.0,-534.0
1750,1428.0,-522.0
1751,1100.0,-413.0
1752,928.0,-278.0
1753,1163.0,-156.0
1754,1466.0,-42.0
1755,1448.0,66.0
1756,1118.0,141.0
1757,1173.0,183.0
1758,980.0,153.0
1759,1209.0,72.0
1760,1553.0,-4.0
1761,1544.0,-37.0
1762,1234.0,-37.0
1763,1036.0,-40.0
1764,1230.0,-54.0
1765,1203.0,101.0
1766,926.0,167.0
1767,1093.0,171.0
1768,1439.0,152.0
1769,1489.0,156.0
1770,1168.0,186.0
1771,935.0,216.0
1772,1111.0,235.0
1773,1440.0,261.0
1774,1467.0,300.0
1775,1160.0,313.0
1776,922.0,252.0
1777,1098.0,120.0
1778,1453.0,-20.0
1779,1532.0,-109.0
1780,1711.0,-223.0
1781,1879.0,-189.0
1782,1629.0,-119.0
1783,1403.0,-62.0
1784,1527.0,-37.0
1785,1848.0,-22.0
1786,1871.0,6.0
1787,1475.0,22.0
1788,1097.0,-29.0
1789,1162.0,-173.0
1790,1469.0,-376.0
1791,1546.0,-591.0
1792,1280.0,-803.0
1793,991.0,-1005.0
1794,1082.0,-1141.0
1795,1410.0,-1103.0
1796,1490.0,-801.0
1797,1193.0,-242.0
1798,921.0,469.0
1799,1024.0,1197.0
1800,1344.0,1826.0
1801,1450.0,2250.0
1802,955.0,1523.0
1803,1309.0,775.0
1804,1464.0,47.0
1805,1216.0,-538.0
1806,918.0,-943.0
1807,1014.0,-1154.0
1808,1382.0,-1162.0
1809,1528.0,-985.0
1810,1028.0,-108.0
1811,1365.0,-42.0
1812,1552.0,66.0
1813,975.0,292.0
1814,1035.0,314.0
1815,1405.0,286.0
1816,1596.0,254.0
1817,1347.0,221.0
1818,1010.0,152.0
1819,1058.0,33.0
1820,1424.0,-89.0
1821,1592.0,-151.0
1822,1360.0,-143.0
1823,1006.0,-112.0
1824,1034.0,-100.0
1825,1382.0,-97.0
1826,1543.0,-74.0
1827,1316.0,-34.0
1828,971.0,-19.0
1829,1007.0,-46.0
1830,1352.0,-80.0
1831,1537.0,-70.0
1832,1325.0,-12.0
1833,974.0,45.0
1834,942.0,65.0
1835,1270.0,73.0
1836,1474.0,110.0
1837,1267.0,174.0
1838,894.0,213.0
1839,872.0,185.0
1840,1189.0,112.0
1841,1383.0,42.0
1842,1173.0,-6.0
1843,821.0,-57.0
1844,763.0,-118.0
1845,801.0,77.0
1846,750.0,127.0
1847,1056.0,139.0
1848,1298.0,153.0
1849,1124.0,180.0
1850,776.0,193.0
1851,744.0,168.0
1852,1064.0,124.0
1853,1282.0,95.0
1854,1128.0,80.0
1855,796.0,34.0
1856,747.0,-67.0
1857,1041.0,-194.0
1858,1296.0,-277.0
1859,724.0,-231.0
1860,1016.0,-198.0
1861,1282.0,-134.0
1862,1131.0,-42.0
1863,799.0,32.0
1864,718.0,49.0
1865,1037.0,29.0
1866,728.0,-176.0
1867,989.0,-191.0
1868,888.0,-3.0
1869,767.0,36.0
1870,1057.0,36.0
1871,1332.0,38.0
1872,1236.0,65.0
1873,891.0,89.0
1874,771.0,73.0
1875,1051.0,24.0
1876,1360.0,-19.0
1877,1283.0,-44.0
1878,899.0,-85.0
1879,731.0,-174.0
1880,1021.0,-289.0
1881,956.0,-287.0
1882,780.0,-212.0
1883,1031.0,-147.0
1884,1339.0,-73.0
1885,1271.0,20.0
1886,947.0,101.0
1887,793.0,130.0
1888,1051.0,111.0
1889,1352.0,83.0
1890,1303.0,69.0
1891,942.0,43.0
1892,766.0,-26.0
1893,1008.0,-123.0
1894,1318.0,-182.0
1895,1266.0,-163.0
1896,986.0,-94.0
1897,823.0,-39.0
1898,1039.0,-24.0
1899,1354.0,-22.0
1900,844.0,-201.0
1901,1060.0,-183.0
1902,1408.0,-131.0
1903,1042.0,40.0
1904,796.0,63.0
1905,966.0,24.0
1906,1291.0,-21.0
1907,1298.0,-24.0
1908,956.0,12.0
1909,734.0,45.0
1910,920.0,54.0
1911,1254.0,62.0
1912,1252.0,91.0
1913,920.0,125.0
1914,716.0,135.0
1915,881.0,128.0
1916,1214.0,152.0
1917,1243.0,232.0
1918,912.0,326.0
1919,665.0,362.0
1920,836.0,310.0
1921,1203.0,207.0
1922,1263.0,105.0
1923,919.0,12.0
1924,650.0,-87.0
1925,813.0,-187.0
1926,1361.0,-226.0
1927,1105.0,-162.0
1928,940.0,-105.0
1929,1224.0,-77.0
1930,1678.0,-50.0
1931,1788.0,3.0
1932,1421.0,66.0
1933,1089.0,96.0
1934,1117.0,80.0
1935,1365.0,44.0
1936,1386.0,10.0
1937,1052.0,-60.0
1938,789.0,-235.0
1939,926.0,-536.0
1940,1260.0,-891.0
1941,1327.0,-1179.0
1942,1040.0,-1298.0
1943,735.0,-1185.0
1944,828.0,-796.0
1945,1185.0,-118.0
1946,1261.0,771.0
1947,980.0,1675.0
1948,1178.0,2425.0
1949,1297.0,1907.0
1950,1011.0,1168.0
1951,730.0,342.0
1952,830.0,-417.0
1953,1180.0,-962.0
1954,1307.0,-1210.0
1955,1032.0,-1199.0
1956,746.0,-1044.0
1957,820.0,-840.0
1958,1197.0,-619.0
1959,1338.0,-384.0
1960,1049.0,-164.0
1961,744.0,-11.0
1962,820.0,58.0
1963,1180.0,83.0
1964,1321.0,116.0
1965,1025.0,163.0
1966,659.0,187.0
1967,698.0,169.0
1968,1063.0,140.0
1969,1223.0,139.0
1970,957.0,165.0
1971,649.0,174.0
1972,712.0,145.0
1973,1071.0,108.0
1974,1250.0,110.0
1975,1026.0,160.0
1976,715.0,223.0
1977,730.0,270.0
1978,1077.0,314.0
1979,1254.0,374.0
1980,1042.0,422.0
1981,734.0,397.0
1982,1190.0,70.0
1983,1410.0,-117.0
1984,1202.0,-262.0
1985,875.0,-372.0
1986,883.0,-449.0
1987,1206.0,-457.0
1988,1396.0,-363.0
1989,1158.0,-197.0
1990,810.0,-42.0
1991,820.0,34.0
1992,1151.0,30.0
1993,1376.0,-15.0
1994,1151.0,-83.0
1995,781.0,-174.0
1996,754.0,-269.0
1997,1042.0,-303.0
1998,1215.0,-213.0
1999,984.0,-8.0
2000,619.0,229.0
2001,583.0,412.0
2002,923.0,512.0
2003,1151.0,544.0
2004,948.0,516.0
2005,582.0,413.0
2006,544.0,249.0
2007,874.0,90.0
2008,1104.0,16.0
2009,918.0,47.0
2010,579.0,126.0
2011,534.0,183.0
2012,863.0,194.0
2013,1095.0,175.0
2014,941.0,125.0
2015,572.0,22.0
2016,522.0,-136.0
2017,818.0,-296.0
2018,1084.0,-384.0
2019,957.0,-380.0
2020,591.0,-329.0
2021,520.0,-284.0
2022,837.0,-244.0
2023,1112.0,-178.0
2024,955.0,-80.0
2025,591.0,10.0
2026,511.0,59.0
2027,809.0,79.0
2028,1068.0,109.0
2029,945.0,153.0
2030,607.0,174.0
2031,549.0,135.0
2032,876.0,60.0
2033,1123.0,5.0
2034,996.0,-3.0
2035,647.0,9.0
2036,549.0,9.0
2037,836.0,5.0
2038,1119.0,34.0
2039,1026.0,96.0
2040,649.0,136.0
2041,539.0,99.0
2042,821.0,-2.0
2043,1120.0,-107.0
2044,993.0,-171.0
2045,691.0,-203.0
2046,553.0,-224.0
2047,828.0,-221.0
2048,1123.0,-161.0
2049,1055.0,-49.0
2050,701.0,58.0
2051,564.0,104.0
2052,1159.0,74.0
2053,1070.0,71.0
2054,710.0,60.0
2055,573.0,4.0
2056,854.0,-83.0
2057,1147.0,-156.0
2058,1086.0,-183.0
2059,726.0,-187.0
2060,595.0,-204.0
2061,858.0,-230.0
2062,1177.0,-227.0
2063,1138.0,-174.0
2064,808.0,-107.0
2065,647.0,-69.0
2066,916.0,-61.0
2067,1249.0,-42.0
2068,1208.0,5.0
2069,868.0,49.0
2070,688.0,41.0
2071,947.0,-17.0
2072,1242.0,-80.0
2073,1208.0,-112.0
2074,861.0,-137.0
2075,688.0,-189.0
2076,932.0,-261.0
2077,1242.0,-304.0
2078,1199.0,-288.0
2079,823.0,-235.0
2080,605.0,-188.0
2081,802.0,-150.0
2082,1161.0,-83.0
2083,1163.0,27.0
2084,832.0,142.0
2085,607.0,203.0
2086,829.0,197.0
2087,1177.0,168.0
2088,1157.0,157.0
2089,828.0,161.0
2090,618.0,151.0
2091,844.0,131.0
2092,1196.0,130.0
2093,1177.0,153.0
2094,854.0,157.0
2095,641.0,88.0
2096,823.0,-51.0
2097,1173.0,-193.0
2098,1201.0,-275.0
2099,853.0,-294.0
2100,683.0,-289.0
2101,946.0,-278.0
2102,1342.0,-240.0
2103,1469.0,-160.0
2104,1268.0,-67.0
2105,1110.0,-8.0
2106,1302.0,12.0
2107,1604.0,41.0
2108,1553.0,107.0
2109,1135.0,175.0
2110,1234.0,-69.0
2111,1320.0,-271.0
2112,1006.0,-521.0
2113,752.0,-821.0
2114,928.0,-1100.0
2115,1248.0,-1223.0
2116,1265.0,-1069.0
2117,933.0,-612.0
2118,665.0,68.0
2119,814.0,846.0
2120,1168.0,1582.0
2121,1240.0,2122.0
2122,1148.0,655.0
2123,1256.0,-111.0
2124,981.0,-689.0
2125,688.0,-1031.0
2126,815.0,-1140.0
2127,1205.0,-1041.0
2128,1312.0,-784.0
2129,1003.0,-468.0
2130,709.0,-201.0
2131,807.0,-31.0
2132,1189.0,68.0
2133,1332.0,141.0
2134,1055.0,187.0
2135,778.0,175.0
2136,871.0,101.0
2137,1226.0,18.0
2138,1355.0,-15.0
2139,1087.0,10.0
2140,775.0,60.0
2141,853.0,109.0
2142,1216.0,167.0
2143,1348.0,244.0
2144,782.0,311.0
2145,859.0,233.0
2146,1216.0,128.0
2147,1368.0,66.0
2148,1114.0,62.0
2149,811.0,80.0
2150,901.0,93.0
2151,1262.0,119.0
2152,1414.0,181.0
2153,1153.0,257.0
2154,839.0,288.0
2155,891.0,248.0
2156,1254.0,172.0
2157,1429.0,112.0
2158,1192.0,71.0
2159,887.0,13.0
2160,946.0,-79.0
2161,1285.0,-167.0
2162,1429.0,-195.0
2163,1176.0,-159.0
2164,835.0,-103.0
2165,868.0,-60.0
2166,1181.0,-15.0
2167,1348.0,54.0
2168,1091.0,131.0
2169,777.0,157.0
2170,808.0,107.0
2171,1142.0,25.0
2172,1322.0,-19.0
2173,1101.0,-3.0
2174,772.0,44.0
2175,774.0,95.0
2176,1129.0,159.0
2177,1325.0,256.0
2178,1139.0,357.0
2179,791.0,348.0
2180,1114.0,231.0
2181,1319.0,111.0
2182,1117.0,13.0
2183,803.0,-81.0
2184,817.0,-183.0
2185,1155.0,-261.0
2186,1360.0,-274.0
2187,1146.0,-227.0
2188,805.0,-172.0
2189,795.0,-141.0
2190,1139.0,-112.0
2191,1097.0,149.0
2192,1314.0,113.0
2193,1120.0,92.0
2194,794.0,66.0
2195,806.0,22.0
2196,1125.0,-7.0
2197,1359.0,24.0
2198,1176.0,118.0
2199,851.0,212.0
2200,812.0,248.0
2201,1123.0,230.0
2202,1360.0,197.0
2203,1177.0,160.0
2204,829.0,84.0
2205,803.0,-50.0
2206,1111.0,-204.0
2207,1386.0,-306.0
2208,1233.0,-330.0
2209,870.0,-306.0
2210,811.0,-270.0
2211,1119.0,-214.0
2212,1380.0,-110.0
2213,865.0,151.0
2214,812.0,204.0
2215,1131.0,195.0
2216,1403.0,160.0
2217,1263.0,116.0
2218,897.0,45.0
2219,748.0,-60.0
2220,1022.0,-164.0
2221,1266.0,-204.0
2222,1131.0,-166.0
2223,775.0,-96.0
2224,648.0,-54.0
2225,276.0,-64.0
2226,387.0,-55.0
2227,400.0,19.0
2228,103.0,155.0
2229,-24.0,289.0
2230,-21.0,364.0
2231,-22.0,395.0
2232,-24.0,438.0
2233,-21.0,519.0
2234,-24.0,609.0
2235,-16.0,683.0
2236,-19.0,768.0
2237,-23.0,904.0
2238,-20.0,1054.0
2239,-20.0,1122.0
2240,-21.0,1047.0
2241,-17.0,848.0
2242,-26.0,576.0
2243,-19.0,235.0
2244,-23.0,962.0
2245,104.0,932.0
2246,150.0,848.0
2247,-24.0,725.0
2248,-19.0,583.0
2249,136.0,442.0
2250,476.0,316.0
2251,470.0,216.0
2252,168.0,141.0
2253,15.0,78.0
2254,277.0,3.0
2255,624.0,-93.0
2256,608.0,-192.0
2257,250.0,-270.0
2258,64.0,-340.0
2259,280.0,-441.0
2260,608.0,-588.0
2261,578.0,-738.0
2262,244.0,-829.0
2263,55.0,-839.0
2264,283.0,-788.0
2265,628.0,-685.0
2266,637.0,-518.0
2267,300.0,-300.0
2268,108.0,-92.0
2269,363.0,39.0
2270,727.0,94.0
2271,732.0,114.0
2272,407.0,117.0
2273,182.0,71.0
2274,378.0,-52.0
2275,726.0,-232.0
2276,754.0,-419.0
2277,467.0,-594.0
2278,277.0,-764.0
2279,505.0,-918.0
2280,892.0,-1016.0
2281,1001.0,-1029.0
2282,776.0,-978.0
2283,629.0,-904.0
2284,957.0,-816.0
2285,1484.0,-685.0
2286,1671.0,-503.0
2287,1422.0,-325.0
2288,1161.0,-232.0
2289,1294.0,-255.0
2290,1609.0,-359.0
2291,1603.0,-498.0
2292,1197.0,-668.0
2293,854.0,-892.0
2294,986.0,-1170.0
2295,1358.0,-1452.0
2296,1432.0,-1678.0
2297,1112.0,-1809.0
2298,798.0,-1815.0
2299,888.0,-1633.0
2300,1196.0,-1181.0
2301,1300.0,-439.0
2302,748.0,1413.0
2303,875.0,2127.0
2304,1250.0,2514.0
2305,1351.0,2527.0
2306,1080.0,2168.0
2307,817.0,1496.0
2308,997.0,655.0
2309,1386.0,-150.0
2310,1519.0,-759.0
2311,1259.0,-1125.0
2312,986.0,-1301.0
2313,1123.0,-1352.0
2314,1498.0,-1299.0
2315,1624.0,-1150.0
2316,1359.0,-952.0
2317,1059.0,-774.0
2318,1159.0,-648.0
2319,1515.0,-547.0
2320,1674.0,-434.0
2321,1427.0,-317.0
2322,1135.0,-232.0
2323,1542.0,111.0
2324,1227.0,69.0
2325,1280.0,53.0
2326,1636.0,85.0
2327,1814.0,185.0
2328,1575.0,314.0
2329,1228.0,397.0
2330,1279.0,392.0
2331,1623.0,328.0
2332,1794.0,269.0
2333,1582.0,240.0
2334,1278.0,216.0
2335,1301.0,177.0
2336,1640.0,149.0
2337,1829.0,166.0
2338,1573.0,216.0
2339,1220.0,248.0
2340,1211.0,234.0
2341,1553.0,206.0
2342,1766.0,208.0
2343,1551.0,237.0
2344,1185.0,242.0
2345,1168.0,190.0
2346,1510.0,113.0
2347,1736.0,72.0
2348,1546.0,92.0
2349,1254.0,147.0
2350,1252.0,206.0
2351,1567.0,273.0
2352,1781.0,362.0
2353,1584.0,448.0
2354,1231.0,476.0
2355,1225.0,415.0
2356,1557.0,302.0
2357,1796.0,198.0
2358,1604.0,120.0
2359,1231.0,32.0
2360,1182.0,-91.0
2361,1579.0,-253.0
2362,1225.0,-164.0
2363,1168.0,-59.0
2364,1492.0,52.0
2365,1739.0,181.0
2366,1551.0,307.0
2367,1199.0,380.0
2368,1168.0,374.0
2369,1477.0,323.0
2370,1731.0,290.0
2371,1576.0,290.0
2372,1231.0,282.0
2373,1149.0,220.0
2374,1452.0,121.0
2375,1724.0,42.0
2376,1571.0,12.0
2377,1210.0,3.0
2378,1119.0,-18.0
2379,1418.0,-48.0
2380,1683.0,-51.0
2381,1547.0,-22.0
2382,1220.0,-1.0
2383,1128.0,-17.0
2384,1403.0,-47.0
2385,1677.0,-40.0
2386,1545.0,16.0
2387,1216.0,81.0
2388,1125.0,107.0
2389,1400.0,102.0
2390,1688.0,106.0
2391,1578.0,130.0
2392,1199.0,137.0
2393,1067.0,91.0
2394,1348.0,10.0
2395,1631.0,-48.0
2396,1536.0,-61.0
2397,1144.0,-55.0
2398,1012.0,-71.0
2399,1271.0,-103.0
2400,1582.0,-110.0
2401,1500.0,-74.0
2402,1175.0,-26.0
2403,1032.0,0.0
2404,1279.0,13.0
2405,1208.0,-290.0
2406,1028.0,-244.0
2407,1517.0,16.0
2408,1171.0,110.0
2409,996.0,126.0
2410,1232.0,68.0
2411,1551.0,-5.0
2412,1525.0,-48.0
2413,1196.0,-69.0
2414,996.0,-96.0
2415,1215.0,-120.0
2416,1543.0,-97.0
2417,1522.0,-10.0
2418,1178.0,97.0
2419,972.0,165.0
2420,1168.0,175.0
2421,1503.0,159.0
2422,1540.0,144.0
2423,1196.0,116.0
2424,950.0,46.0
2425,1153.0,-51.0
2426,1492.0,-121.0
2427,1501.0,-124.0
2428,1175.0,-79.0
2429,1174.0,-10.0
2430,1530.0,16.0
2431,1553.0,60.0
2432,1224.0,96.0
2433,1023.0,86.0
2434,1212.0,32.0
2435,1541.0,-11.0
2436,1565.0,-8.0
2437,971.0,116.0
2438,1306.0,146.0
2439,1374.0,210.0
2440,833.0,354.0
2441,945.0,372.0
2442,1271.0,378.0
2443,1351.0,394.0
2444,1025.0,397.0
2445,775.0,343.0
2446,923.0,226.0
2447,1279.0,92.0
2448,1358.0,-10.0
2449,1046.0,-88.0
2450,808.0,-175.0
2451,947.0,-276.0
2452,1335.0,-344.0
2453,1516.0,-334.0
2454,1315.0,-258.0
2455,1162.0,-174.0
2456,1383.0,-120.0
2457,1813.0,-81.0
2458,1891.0,-36.0
2459,1520.0,0.0
2460,1151.0,-9.0
2461,1170.0,-74.0
2462,1151.0,-316.0
2463,834.0,-489.0
2464,939.0,-754.0
2465,1293.0,-1018.0
2466,1386.0,-1147.0
2467,1071.0,-1045.0
2468,770.0,-684.0
2469,872.0,-77.0
2470,1232.0,726.0
2471,1347.0,1612.0
2472,1086.0,2382.0
2473,775.0,2817.0
2474,850.0,2797.0
2475,1207.0,2361.0
2476,1357.0,1651.0
2477,1099.0,824.0
2478,842.0,4.0
2479,940.0,-693.0
2480,1299.0,-1163.0
2481,1459.0,-1354.0
2482,1220.0,-1308.0
2483,904.0,-1130.0
2484,972.0,-905.0
2485,1322.0,-655.0
2486,1508.0,-387.0
2487,1280.0,-145.0
2488,960.0,-3.0
2489,999.0,7.0
2490,1346.0,-68.0
2491,1557.0,-156.0
2492,1360.0,-214.0
2493,1008.0,-246.0
2494,1034.0,-251.0
2495,1394.0,-203.0
2496,1309.0,66.0
2497,1002.0,184.0
2498,1031.0,227.0
2499,1384.0,217.0
2500,1582.0,202.0
2501,1391.0,193.0
2502,1044.0,162.0
2503,1018.0,94.0
2504,1339.0,28.0
2505,1556.0,22.0
2506,1353.0,82.0
2507,1007.0,158.0
2508,1018.0,200.0
2509,1327.0,206.0
2510,1541.0,201.0
2511,1312.0,185.0
2512,964.0,132.0
2513,952.0,41.0
2514,1247.0,-34.0
2515,1472.0,-35.0
2516,1280.0,37.0
2517,931.0,118.0
2518,885.0,148.0
2519,1192.0,132.0
2520,1389.0,115.0
2521,1200.0,118.0
2522,839.0,118.0
2523,816.0,92.0
2524,1129.0,63.0
2525,1360.0,66.0
2526,1146.0,97.0
2527,763.0,105.0
2528,726.0,59.0
2529,1031.0,-10.0
2530,1297.0,-41.0
2531,1140.0,-16.0
2532,782.0,17.0
2533,705.0,11.0
2534,1022.0,-30.0
2535,1289.0,-64.0
2536,1134.0,-70.0
2537,765.0,-72.0
2538,699.0,-97.0
2539,1001.0,-129.0
2540,1270.0,-133.0
2541,1108.0,-111.0
2542,760.0,-111.0
2543,698.0,-171.0
2544,1007.0,-263.0
2545,1280.0,-322.0
2546,1144.0,-314.0
2547,793.0,-272.0
2548,719.0,-236.0
2549,1024.0,-206.0
2550,1301.0,-151.0
2551,1161.0,-67.0
2552,794.0,0.0
2553,941.0,9.0
2554,1233.0,31.0
2555,1154.0,69.0
2556,816.0,92.0
2557,681.0,71.0
2558,951.0,25.0
2559,1274.0,6.0
2560,1170.0,35.0
2561,1251.0,-13.0
2562,1185.0,-69.0
2563,826.0,-110.0
2564,682.0,-161.0
2565,964.0,-212.0
2566,1302.0,-217.0
2567,1252.0,-160.0
2568,859.0,-82.0
2569,691.0,-34.0
2570,937.0,-14.0
2571,1289.0,28.0
2572,1268.0,119.0
2573,894.0,214.0
2574,670.0,247.0
2575,896.0,200.0
2576,924.0,-158.0
2577,1265.0,-158.0
2578,1279.0,-86.0
2579,945.0,15.0
2580,756.0,88.0
2581,951.0,114.0
2582,1275.0,126.0
2583,1271.0,142.0
2584,963.0,138.0
2585,766.0,81.0
2586,971.0,-16.0
2587,1332.0,-91.0
2588,1343.0,-100.0
2589,1005.0,-61.0
2590,767.0,-25.0
2591,969.0,-7.0
2592,1320.0,19.0
2593,1358.0,73.0
2594,1033.0,124.0
2595,768.0,122.0
2596,962.0,64.0
2597,1336.0,0.0
2598,1046.0,-27.0
2599,795.0,-39.0
2600,950.0,-64.0
2601,1310.0,-58.0
2602,1390.0,8.0
2603,1080.0,102.0
2604,806.0,158.0
2605,971.0,151.0
2606,1349.0,116.0
2607,1416.0,98.0
2608,1101.0,95.0
2609,854.0,75.0
2610,983.0,29.0
2611,1334.0,-5.0
2612,1417.0,2.0
2613,1112.0,32.0
2614,808.0,36.0
2615,923.0,-3.0
2616,1268.0,-47.0
2617,1321.0,-56.0
2618,1026.0,-39.0
2619,782.0,-37.0
2620,913.0,-59.0
2621,1264.0,-66.0
2622,1361.0,-22.0
2623,1085.0,56.0
2624,792.0,119.0
2625,901.0,149.0
2626,1271.0,181.0
2627,1414.0,244.0
2628,1142.0,310.0
2629,859.0,313.0
2630,958.0,224.0
2631,1307.0,81.0
2632,1419.0,-57.0
2633,1193.0,-172.0
2634,934.0,-277.0
2635,1031.0,-368.0
2636,1435.0,-407.0
2637,1645.0,-365.0
2638,1453.0,-276.0
2639,1263.0,-202.0
2640,1472.0,-172.0
2641,1871.0,-152.0
2642,1996.0,-98.0
2643,1640.0,-16.0
2644,1494.0,-18.0
2645,1593.0,-98.0
2646,1352.0,-213.0
2647,1057.0,-401.0
2648,1130.0,-654.0
2649,1451.0,-885.0
2650,1610.0,-973.0
2651,1314.0,-837.0
2652,964.0,-468.0
2653,1025.0,103.0
2654,1392.0,824.0
2655,1559.0,1585.0
2656,1314.0,2200.0
2657,975.0,2465.0
2658,1006.0,2283.0
2659,1379.0,1721.0
2660,1592.0,960.0
2661,1355.0,184.0
2662,1010.0,-481.0
2663,1025.0,-955.0
2664,1373.0,-1187.0
2665,1567.0,-1177.0
2666,1045.0,-571.0
2667,1385.0,-411.0
2668,1592.0,-265.0
2669,1378.0,-134.0
2670,1056.0,-57.0
2671,1083.0,-51.0
2672,1446.0,-75.0
2673,1639.0,-71.0
2674,1419.0,-26.0
2675,1083.0,17.0
2676,1073.0,25.0
2677,1404.0,12.0
2678,1624.0,18.0
2679,1440.0,44.0
2680,1096.0,46.0
2681,1051.0,0.0
2682,1383.0,-68.0
2683,1631.0,-102.0
2684,1472.0,-90.0
2685,1094.0,-64.0
2686,1031.0,-52.0
2687,1369.0,-33.0
2688,1609.0,29.0
2689,1444.0,123.0
2690,1082.0,191.0
2691,1036.0,189.0
2692,1349.0,134.0
2693,1612.0,81.0
2694,1443.0,53.0
2695,1066.0,28.0
2696,1005.0,-17.0
2697,1324.0,-63.0
2698,1560.0,-68.0
2699,1380.0,-25.0
2700,1018.0,19.0
2701,954.0,23.0
2702,1243.0,-4.0
2703,1480.0,-21.0
2704,1321.0,-9.0
2705,949.0,1.0
2706,859.0,-18.0
2707,1132.0,-47.0
2708,1403.0,-35.0
2709,1260.0,27.0
2710,895.0,93.0
2711,784.0,112.0
2712,1062.0,95.0
2713,1326.0,88.0
2714,1185.0,110.0
2715,814.0,125.0
2716,738.0,96.0
2717,1037.0,39.0
2718,1306.0,1.0
2719,1187.0,-3.0
2720,809.0,-13.0
2721,701.0,-62.0
2722,985.0,-130.0
2723,1305.0,-164.0
2724,1193.0,-144.0
2725,828.0,-110.0
2726,687.0,-111.0
2727,949.0,-150.0
2728,1265.0,-186.0
2729,1177.0,-194.0
2730,829.0,-194.0
2731,695.0,-215.0
2732,943.0,-241.0
2733,1266.0,-231.0
2734,1185.0,-172.0
2735,813.0,-106.0
2736,655.0,-77.0
2737,907.0,-77.0
2738,1239.0,-59.0
2739,1183.0,-4.0
2740,840.0,51.0
2741,674.0,60.0
2742,909.0,22.0
2743,1216.0,-15.0
2744,1160.0,-20.0
2745,602.0,61.0
2746,849.0,76.0
2747,1170.0,92.0
2748,1143.0,130.0
2749,772.0,161.0
2750,588.0,142.0
2751,820.0,78.0
2752,1163.0,17.0
2753,1154.0,-6.0
2754,812.0,-15.0
2755,595.0,-50.0
2756,832.0,-107.0
2757,1173.0,-132.0
2758,1161.0,-88.0
2759,828.0,-4.0
2760,817.0,83.0
2761,1158.0,94.0
2762,1181.0,116.0
2763,864.0,127.0
2764,642.0,90.0
2765,839.0,15.0
2766,1177.0,-41.0
2767,1212.0,-42.0
2768,914.0,-7.0
2769,702.0,14.0
2770,890.0,14.0
2771,1288.0,26.0
2772,1348.0,71.0
2773,1033.0,122.0
2774,778.0,129.0
2775,950.0,91.0
2776,1317.0,51.0
2777,1359.0,46.0
2778,1043.0,58.0
2779,805.0,40.0
2780,981.0,-17.0
2781,1340.0,-81.0
2782,1395.0,-112.0
2783,1087.0,-115.0
2784,847.0,-117.0
2785,1014.0,-113.0
2786,1361.0,-59.0
2787,1433.0,70.0
2788,1131.0,238.0
2789,883.0,367.0
2790,1037.0,416.0
2791,1395.0,410.0
2792,1455.0,389.0
2793,1150.0,354.0
2794,866.0,277.0
2795,1296.0,67.0
2796,1335.0,32.0
2797,1038.0,42.0
2798,760.0,45.0
2799,900.0,22.0
2800,1223.0,7.0
2801,1319.0,39.0
2802,1027.0,102.0
2803,748.0,154.0
2804,867.0,183.0
2805,1210.0,229.0
2806,1309.0,321.0
2807,1013.0,429.0
2808,724.0,484.0
2809,848.0,447.0
2810,1191.0,344.0
2811,1293.0,219.0
2812,1024.0,81.0
2813,736.0,-83.0
2814,851.0,-261.0
2815,1196.0,-392.0
2816,1344.0,-428.0
2817,1148.0,-382.0
2818,940.0,-312.0
2819,1123.0,-256.0
2820,1577.0,-201.0
2821,1787.0,-123.0
2822,1547.0,-37.0
2823,1192.0,8.0
2824,1213.0,-5.0
2825,1475.0,-46.0
2826,1508.0,-76.0
2827,1120.0,-114.0
2828,743.0,-217.0
2829,1190.0,-669.0
2830,1331.0,-899.0
2831,1044.0,-1039.0
2832,716.0,-1046.0
2833,764.0,-870.0
2834,1080.0,-449.0
2835,1223.0,228.0
2836,972.0,1056.0
2837,669.0,1832.0
2838,729.0,2356.0
2839,1077.0,2520.0
2840,1225.0,2314.0
2841,955.0,1780.0
2842,657.0,1002.0
2843,705.0,126.0
2844,1039.0,-645.0
2845,1227.0,-1154.0
2846,1012.0,-1360.0
2847,671.0,-1340.0
2848,696.0,-1193.0
2849,1029.0,-971.0
2850,1207.0,-696.0
2851,713.0,-47.0
2852,1075.0,29.0
2853,1275.0,83.0
2854,1022.0,114.0
2855,685.0,93.0
2856,718.0,20.0
2857,1087.0,-48.0
2858,1313.0,-50.0
2859,1089.0,14.0
2860,730.0,82.0
2861,723.0,94.0
2862,1064.0,53.0
2863,1303.0,0.0
2864,1140.0,-41.0
2865,772.0,-85.0
2866,741.0,-141.0
2867,1079.0,-177.0
2868,1334.0,-155.0
2869,1167.0,-81.0
2870,834.0,-8.0
2871,834.0,23.0
2872,1172.0,33.0
2873,1413.0,64.0
2874,1209.0,117.0
2875,869.0,150.0
2876,822.0,128.0
2877,1146.0,72.0
2878,1405.0,29.0
2879,1240.0,12.0
2880,867.0,-13.0
2881,818.0,-77.0
2882,1141.0,-155.0
2883,1395.0,-191.0
2884,1256.0,-166.0
2885,875.0,-107.0
2886,795.0,-49.0
2887,1076.0,18.0
2888,1307.0,120.0
2889,1162.0,239.0
2890,815.0,313.0
2891,755.0,300.0
2892,1051.0,222.0
2893,1294.0,144.0
2894,1154.0,99.0
2895,784.0,65.0
2896,699.0,17.0
2897,1279.0,1.0
2898,1145.0,82.0
2899,809.0,163.0
2900,719.0,184.0
2901,991.0,140.0
2902,1283.0,78.0
2903,1173.0,24.0
2904,818.0,-31.0
2905,712.0,-106.0
2906,1013.0,-173.0
2907,1314.0,-189.0
2908,1204.0,-149.0
2909,831.0,-107.0
2910,697.0,-109.0
2911,980.0,-143.0
2912,1285.0,-155.0
2913,1204.0,-119.0
2914,873.0,-67.0
2915,735.0,-45.0
2916,983.0,-57.0
2917,1312.0,-61.0
2918,1229.0,-35.0
2919,879.0,0.0
2920,741.0,14.0
2921,973.0,17.0
2922,1275.0,44.0
2923,1197.0,98.0
2924,859.0,134.0
2925,722.0,107.0
2926,966.0,28.0
2927,1295.0,-44.0
2928,1236.0,-70.0
2929,886.0,-66.0
2930,728.0,-65.0
2931,955.0,-64.0
2932,1267.0,-26.0
2933,1211.0,56.0
2934,858.0,139.0
2935,708.0,167.0
2936,988.0,132.0
2937,1303.0,79.0
2938,1270.0,38.0
2939,928.0,-4.0
2940,739.0,-70.0
2941,953.0,-138.0
2942,1277.0,-152.0
2943,1247.0,-87.0
2944,912.0,11.0
2945,737.0,72.0
2946,967.0,69.0
2947,1309.0,31.0
2948,1289.0,-6.0
2949,931.0,-48.0
2950,735.0,-107.0
2951,967.0,-159.0
2952,1299.0,-150.0
2953,1285.0,-61.0
2954,948.0,58.0
2955,761.0,134.0
2956,1000.0,138.0
2957,1328.0,105.0
2958,1320.0,72.0
2959,994.0,41.0
2960,765.0,-10.0
2961,943.0,-68.0
2962,1268.0,-90.0
2963,1315.0,-52.0
2964,1015.0,6.0
2965,772.0,26.0
2966,946.0,-4.0
2967,1298.0,-45.0
2968,1305.0,-54.0
2969,988.0,-39.0
2970,786.0,-28.0
2971,981.0,-22.0
2972,1326.0,12.0
2973,1345.0,87.0
2974,982.0,159.0
2975,750.0,171.0
2976,927.0,115.0
2977,1304.0,44.0
2978,1379.0,6.0
2979,1069.0,-4.0
2980,823.0,-27.0
2981,996.0,-75.0
2982,1354.0,-114.0
2983,1413.0,-109.0
2984,1100.0,-66.0
2985,887.0,-24.0
2986,1060.0,0.0
2987,1411.0,31.0
2988,1468.0,78.0
2989,1139.0,103.0
2990,891.0,56.0
2991,1047.0,-61.0
2992,1404.0,-177.0
2993,1472.0,-224.0
2994,1142.0,-199.0
2995,860.0,-156.0
2996,979.0,-126.0
2997,1317.0,-94.0
2998,1375.0,-33.0
2999,1091.0,43.0
3000,830.0,96.0
3001,947.0,117.0
3002,1296.0,140.0
3003,1380.0,191.0
3004,1075.0,249.0
3005,776.0,267.0
3006,899.0,240.0
3007,1268.0,213.0
3008,1387.0,225.0
3009,1115.0,256.0
3010,818.0,243.0
3011,1666.0,-110.0
3012,1591.0,-28.0
3013,1272.0,-59.0
3014,915.0,-180.0
3015,959.0,-420.0
3016,1304.0,-724.0
3017,1470.0,-980.0
3018,1193.0,-1096.0
3019,860.0,-1016.0
3020,903.0,-702.0
3021,1263.0,-130.0
3022,1453.0,656.0
3023,1180.0,1500.0
3024,831.0,2171.0
3025,1398.0,1966.0
3026,1167.0,1298.0
3027,832.0,496.0
3028,865.0,-307.0
3029,1226.0,-964.0
3030,1412.0,-1360.0
3031,1198.0,-1478.0
3032,886.0,-1389.0
3033,915.0,-1172.0
3034,1226.0,-868.0
3035,1424.0,-505.0
3036,1222.0,-145.0
3037,892.0,120.0
3038,895.0,243.0
3039,1235.0,251.0
3040,1433.0,211.0
3041,1238.0,154.0
3042,925.0,72.0
3043,917.0,-32.0
3044,1259.0,-112.0
3045,1498.0,-118.0
3046,1308.0,-52.0
3047,979.0,27.0
3048,958.0,76.0
3049,1280.0,103.0
3050,1503.0,141.0
3051,1350.0,183.0
3052,1039.0,187.0
3053,1042.0,129.0
3054,1355.0,37.0
3055,1576.0,-32.0
3056,1420.0,-63.0
3057,1079.0,-84.0
3058,1037.0,-116.0
3059,1340.0,-133.0
3060,1575.0,-98.0
3061,1408.0,-19.0
3062,1059.0,46.0
3063,1015.0,50.0
3064,1345.0,5.0
3065,1600.0,-34.0
3066,1423.0,-43.0
3067,1084.0,-34.0
3068,1013.0,-28.0
3069,1303.0,-6.0
3070,1579.0,60.0
3071,1399.0,164.0
3072,1025.0,246.0
3073,948.0,256.0
3074,1257.0,202.0
3075,1496.0,133.0
3076,1332.0,78.0
3077,991.0,20.0
3078,917.0,-56.0
3079,1213.0,-129.0
3080,1473.0,-144.0
3081,1325.0,-88.0
3082,951.0,-5.0
3083,861.0,52.0
3084,1177.0,82.0
3085,1467.0,115.0
3086,1336.0,160.0
3087,968.0,175.0
3088,851.0,126.0
3089,1163.0,29.0
3090,1462.0,-54.0
3091,1360.0,-93.0
3092,983.0,-108.0
3093,844.0,-132.0
3094,1125.0,-158.0
3095,1424.0,-151.0
3096,1323.0,-105.0
3097,983.0,-62.0
3098,859.0,-61.0
3099,1140.0,-89.0
3100,1440.0,-100.0
3101,1367.0,-69.0
3102,1005.0,-25.0
3103,839.0,-5.0
3104,1108.0,-1.0
3105,1423.0,25.0
3106,1371.0,87.0
3107,1014.0,142.0
3108,842.0,139.0
3109,1108.0,81.0
3110,1422.0,14.0
3111,1332.0,-26.0
3112,974.0,-52.0
3113,815.0,-82.0
3114,1071.0,-103.0
3115,1381.0,-78.0
3116,1340.0,-3.0
3117,985.0,70.0
3118,790.0,89.0
3119,1000.0,56.0
3120,1328.0,27.0
3121,1287.0,41.0
3122,933.0,76.0
3123,786.0,89.0
3124,1026.0,71.0
3125,1343.0,54.0
3126,1351.0,56.0
3127,1002.0,56.0
3128,804.0,22.0
3129,1023.0,-28.0
3130,1348.0,-43.0
3131,1346.0,0.0
3132,1023.0,60.0
3133,809.0,72.0
3134,1012.0,19.0
3135,1348.0,-59.0
3136,1359.0,-126.0
3137,1028.0,-179.0
3138,795.0,-233.0
3139,991.0,-272.0
3140,1335.0,-253.0
3141,1357.0,-160.0
3142,1036.0,-38.0
3143,823.0,47.0
3144,1032.0,80.0
3145,1382.0,91.0
3146,1402.0,112.0
3147,1082.0,131.0
3148,872.0,115.0
3149,1075.0,64.0
3150,1405.0,21.0
3151,1450.0,13.0
3152,1133.0,18.0
3153,924.0,-10.0
3154,1096.0,-80.0
3155,1428.0,-149.0
3156,1469.0,-174.0
3157,1156.0,-167.0
3158,903.0,-167.0
3159,1087.0,-182.0
3160,1459.0,-175.0
3161,1516.0,-121.0
3162,1157.0,-46.0
3163,907.0,-3.0
3164,1085.0,-3.0
3165,1467.0,-5.0
3166,1507.0,30.0
3167,1174.0,87.0
3168,904.0,118.0
3169,1070.0,103.0
3170,1446.0,72.0
3171,1533.0,61.0
3172,1206.0,61.0
3173,928.0,38.0
3174,1094.0,-15.0
3175,1447.0,-58.0
3176,1509.0,-52.0
3177,1212.0,-11.0
3178,968.0,14.0
3179,1112.0,2.0
3180,1473.0,-17.0
3181,1578.0,-13.0
3182,1275.0,4.0
3183,985.0,-7.0
3184,1115.0,-56.0
3185,1486.0,-96.0
3186,1583.0,-83.0
3187,1248.0,-34.0
3188,932.0,-4.0
3189,1033.0,-18.0
3190,1372.0,-48.0
3191,1472.0,-57.0
3192,1164.0,-50.0
3193,873.0,-61.0
3194,1005.0,-92.0
3195,1358.0,-99.0
3196,1443.0,-44.0
3197,1158.0,54.0
3198,886.0,144.0
3199,1003.0,202.0
3200,1360.0,252.0
3201,1459.0,321.0
3202,1179.0,382.0
3203,882.0,375.0
3204,983.0,274.0
3205,1310.0,122.0
3206,1447.0,-14.0
3207,1184.0,-119.0
3208,876.0,-214.0
3209,1628.0,-316.0
3210,1460.0,-225.0
3211,1257.0,-133.0
3212,1446.0,-68.0
3213,1888.0,-5.0
3214,2048.0,85.0
3215,1748.0,186.0
3216,1340.0,241.0
3217,1294.0,216.0
3218,1542.0,125.0
3219,1643.0,-3.0
3220,1359.0,-182.0
3221,1041.0,-444.0
3222,1099.0,-779.0
3223,1430.0,-1099.0
3224,1561.0,-1276.0
3225,1308.0,-1220.0
3226,998.0,-908.0
3227,1034.0,-356.0
3228,1415.0,-1285.0
3229,1080.0,-1051.0
3230,1647.0,-268.0
3231,1486.0,-35.0
3232,1163.0,123.0
3233,1180.0,184.0
3234,1556.0,180.0
3235,1800.0,167.0
3236,1602.0,167.0
3237,1227.0,160.0
3238,1250.0,129.0
3239,1616.0,93.0
3240,1881.0,90.0
3241,1710.0,115.0
3242,1365.0,118.0
3243,1322.0,61.0
3244,1663.0,-37.0
3245,1911.0,-117.0
3246,1742.0,-144.0
3247,1412.0,-135.0
3248,1388.0,-115.0
3249,1708.0,-79.0
3250,1961.0,-7.0
3251,1802.0,85.0
3252,1444.0,142.0
3253,1976.0,59.0
3254,1816.0,86.0
3255,1450.0,118.0
3256,1382.0,106.0
3257,1678.0,56.0
3258,1948.0,12.0
3259,1793.0,-6.0
3260,1427.0,-22.0
3261,1329.0,-58.0
3262,1616.0,-91.0
3263,1896.0,-82.0
3264,1760.0,-29.0
3265,1364.0,20.0
3266,1775.0,23.0
3267,1654.0,65.0
3268,1299.0,104.0
3269,1170.0,100.0
3270,1430.0,62.0
3271,1723.0,37.0
3272,1613.0,46.0
3273,1257.0,62.0
3274,1144.0,58.0
3275,1399.0,47.0
3276,1682.0,66.0
3277,1585.0,122.0
3278,1213.0,171.0
3279,1068.0,168.0
3280,1344.0,118.0
3281,1642.0,67.0
3282,1553.0,40.0
3283,1172.0,14.0
3284,1026.0,-37.0
3285,1321.0,-97.0
3286,1619.0,-114.0
3287,1531.0,-67.0
3288,1176.0,9.0
3289,1270.0,105.0
3290,1575.0,149.0
3291,1511.0,215.0
3292,1160.0,265.0
3293,1001.0,257.0
3294,1239.0,198.0
3295,1548.0,140.0
3296,1516.0,117.0
3297,1148.0,109.0
3298,971.0,81.0
3299,1234.0,40.0
3300,1546.0,31.0
3301,1486.0,76.0
3302,1135.0,137.0
3303,964.0,165.0
3304,1212.0,152.0
3305,1536.0,137.0
3306,1476.0,144.0
3307,1125.0,150.0
3308,920.0,119.0
3309,1147.0,61.0
3310,1487.0,22.0
3311,1475.0,31.0
3312,1115.0,60.0
3313,905.0,63.0
3314,1098.0,34.0
3315,1442.0,14.0
3316,1435.0,34.0
3317,1105.0,72.0
3318,902.0,86.0
3319,1092.0,72.0
3320,1437.0,64.0
3321,1455.0,84.0
3322,1132.0,104.0
3323,916.0,84.0
3324,1070.0,27.0
3325,1417.0,-16.0
3326,1480.0,-17.0
3327,1177.0,1.0
3328,973.0,-5.0
3329,1206.0,-49.0
3330,1638.0,-95.0
3331,1797.0,-112.0
3332,1648.0,-111.0
3333,1540.0,-122.0
3334,1869.0,-140.0
3335,2225.0,-129.0
3336,2229.0,-74.0
3337,2229.0,-11.0
3338,2232.0,-2.0
3339,2229.0,-73.0
3340,2231.0,-203.0
3341,2229.0,-371.0
3342,2230.0,-594.0
3343,2233.0,-884.0
3344,2229.0,-1183.0
3345,2230.0,-1383.0
3346,2225.0,-1411.0
3347,2230.0,-573.0
3348,2229.0,29.0
3349,2230.0,751.0
3350,2236.0,1441.0
3351,2234.0,1945.0
3352,2232.0,2200.0
3353,2237.0,2209.0
3354,2233.0,1987.0
3355,2232.0,1555.0
3356,2230.0,990.0
3357,2227.0,419.0
3358,2231.0,-42.0
3359,2230.0,-354.0
3360,2236.0,-541.0
3361,2230.0,-636.0
3362,2229.0,-654.0
3363,2226.0,-599.0
3364,2226.0,-489.0
3365,2232.0,-355.0
3366,2229.0,-229.0
3367,2230.0,-131.0
3368,2232.0,-69.0
3369,2232.0,-47.0
3370,2231.0,-62.0
3371,2229.0,-76.0
3372,2234.0,-85.0
3373,2231.0,-87.0
3374,2232.0,-84.0
3375,2232.0,-79.0
3376,2227.0,-74.0
3377,2228.0,-69.0
3378,2236.0,-65.0
3379,2229.0,-62.0
3380,2235.0,-58.0
3381,2235.0,-53.0
3382,2232.0,-48.0
3383,2229.0,-42.0
3384,2231.0,-35.0
3385,2231.0,-29.0
3386,2232.0,-22.0
3387,2234.0,-16.0
3388,2229.0,-12.0
3389,2231.0,-10.0
3390,2227.0,-12.0
3391,2232.0,-17.0
3392,2231.0,-24.0
3393,2227.0,-28.0
3394,2236.0,-28.0
3395,2225.0,-24.0
3396,2228.0,-19.0
3397,2229.0,-14.0
3398,2236.0,-11.0
3399,2230.0,-9.0
3400,2229.0,-10.0
3401,2232.0,-11.0
3402,2219.0,-13.0
3403,2234.0,-15.0
3404,2229.0,-17.0
3405,2234.0,-18.0
3406,2233.0,-20.0
3407,2231.0,-22.0
3408,2227.0,-24.0
3409,2229.0,-25.0
3410,2222.0,-26.0
3411,2236.0,-24.0
3412,2229.0,-21.0
3413,2232.0,-17.0
3414,2236.0,-14.0
3415,2233.0,-16.0
3416,2233.0,-20.0
3417,2224.0,-23.0
3418,2229.0,-23.0
3419,2232.0,-20.0
3420,2233.0,-15.0
3421,2231.0,-10.0
3422,2235.0,-9.0
3423,2230.0,-12.0
3424,2232.0,-19.0
3425,2227.0,-27.0
3426,2234.0,-31.0
3427,2235.0,-27.0
3428,2233.0,-19.0
3429,2229.0,-7.0
3430,2234.0,0.0
3431,2231.0,3.0
3432,2227.0,0.0
3433,2229.0,-6.0
3434,2231.0,-13.0
3435,2232.0,-17.0
3436,2232.0,-18.0
3437,2232.0,-16.0
3438,2236.0,-11.0
3439,2236.0,-10.0
3440,2229.0,-7.0
3441,2232.0,-4.0
3442,2231.0,0.0
3443,2229.0,4.0
3444,2232.0,7.0
3445,2234.0,6.0
3446,2237.0,1.0
3447,2234.0,-5.0
3448,2228.0,-13.0
3449,2227.0,-18.0
3450,2230.0,-18.0
3451,2230.0,-14.0
3452,2232.0,-5.0
3453,2228.0,3.0
3454,2230.0,12.0
3455,2223.0,16.0
3456,2230.0,15.0
3457,2183.0,11.0
3458,1969.0,7.0
3459,2080.0,4.0
3460,2221.0,5.0
3461,2100.0,8.0
3462,1665.0,11.0
3463,1512.0,12.0
3464,1793.0,5.0
3465,2099.0,-6.0
3466,1983.0,-1.0
3467,1572.0,42.0
3468,1352.0,117.0
3469,1581.0,192.0
3470,1878.0,262.0
3471,1772.0,359.0
3472,1361.0,505.0
3473,1142.0,657.0
3474,1335.0,726.0
3475,1606.0,657.0
3476,1536.0,465.0
3477,1138.0,198.0
3478,909.0,-109.0
3479,1138.0,-416.0
3480,1464.0,-641.0
3481,1382.0,-701.0
3482,951.0,-590.0
3483,710.0,-395.0
3484,941.0,-204.0
3485,1286.0,-48.0
3486,1222.0,81.0
3487,833.0,173.0
3488,585.0,195.0
3489,1161.0,-47.0
3490,791.0,-127.0
3491,531.0,-207.0
3492,723.0,-268.0
3493,1060.0,-268.0
3494,1027.0,-196.0
3495,678.0,-103.0
3496,431.0,-57.0
3497,609.0,-73.0
3498,949.0,-109.0
3499,926.0,-122.0
3500,585.0,-122.0
3501,337.0,-143.0
3502,467.0,-175.0
3503,797.0,-165.0
3504,823.0,-81.0
3505,485.0,42.0
3506,223.0,142.0
3507,380.0,192.0
3508,731.0,218.0
3509,782.0,244.0
3510,446.0,250.0
3511,159.0,207.0
3512,318.0,130.0
3513,694.0,73.0
3514,767.0,69.0
3515,453.0,89.0
3516,185.0,76.0
3517,337.0,14.0
3518,675.0,-58.0
3519,751.0,-99.0
3520,446.0,-114.0
3521,169.0,-136.0
3522,318.0,-174.0
3523,665.0,-195.0
3524,739.0,-170.0
3525,390.0,-125.0
3526,48.0,-106.0
3527,178.0,-126.0
3528,525.0,-139.0
3529,622.0,-99.0
3530,283.0,-15.0
3531,-26.0,55.0
3532,55.0,85.0
3533,372.0,100.0
3534,457.0,141.0
3535,-22.0,259.0
3536,-19.0,287.0
3537,234.0,314.0
3538,322.0,360.0
3539,52.0,394.0
3540,-22.0,362.0
3541,-22.0,259.0
3542,165.0,141.0
3543,291.0,62.0
3544,23.0,15.0
3545,-23.0,-46.0
3546,-19.0,-132.0
3547,106.0,-197.0
3548,223.0,-207.0
3549,-23.0,-186.0
3550,-16.0,-188.0
3551,-25.0,-221.0
3552,41.0,-241.0
3553,182.0,-221.0
3554,14.0,-188.0
3555,-27.0,-180.0
3556,8.0,-186.0
3557,420.0,-157.0
3558,687.0,-72.0
3559,458.0,29.0
3560,30.0,90.0
3561,3.0,104.0
3562,288.0,104.0
3563,348.0,122.0
3564,-23.0,147.0
3565,-20.0,128.0
3566,-24.0,10.0
3567,-31.0,-220.0
3568,-19.0,-519.0
3569,-23.0,-790.0
3570,-22.0,-926.0
3571,-22.0,-833.0
3572,-19.0,-457.0
3573,-22.0,168.0
3574,-25.0,896.0
3575,-20.0,1516.0
3576,-23.0,1859.0
3577,-24.0,1880.0
3578,-21.0,1625.0
3579,-21.0,1168.0
3580,-22.0,581.0
3581,-25.0,-30.0
3582,-23.0,-902.0
3583,-23.0,-1097.0
3584,-20.0,-1156.0
3585,-22.0,-1076.0
3586,-22.0,-852.0
3587,-20.0,-533.0
3588,-25.0,-217.0
3589,-22.0,18.0
3590,-25.0,154.0
3591,-19.0,218.0
3592,-26.0,237.0
3593,-21.0,225.0
3594,-21.0,187.0
3595,-23.0,135.0
3596,-26.0,83.0
3597,-23.0,41.0
3598,-25.0,14.0
3599,-23.0,3.0
3600,-26.0,2.0
3601,-16.0,7.0
3602,-22.0,12.0
3603,-23.0,15.0
3604,-19.0,15.0
3605,-25.0,12.0
3606,-24.0,9.0
3607,122.0,7.0
3608,44.0,6.0
3609,-25.0,6.0
3610,-23.0,5.0
3611,41.0,2.0
3612,272.0,-1.0
3613,154.0,-3.0
3614,-21.0,-2.0
3615,-21.0,-6.0
3616,25.0,-27.0
3617,281.0,-65.0
3618,191.0,-102.0
3619,-31.0,-121.0
3620,-24.0,-126.0
3621,71.0,-133.0
3622,310.0,-144.0
3623,219.0,-141.0
3624,-23.0,-103.0
3625,-27.0,-40.0
3626,45.0,28.0
3627,263.0,97.0
3628,168.0,171.0
3629,-24.0,239.0
3630,-17.0,267.0
3631,-11.0,229.0
3632,206.0,145.0
3633,150.0,59.0
3634,-20.0,-1.0
3635,-20.0,-37.0
3636,-2.0,-50.0
3637,228.0,-33.0
3638,155.0,12.0
3639,-16.0,57.0
3640,-23.0,73.0
3641,32.0,60.0
3642,291.0,40.0
3643,239.0,23.0
3644,-22.0,-5.0
3645,-25.0,-63.0
3646,-2.0,-137.0
3647,192.0,-195.0
3648,118.0,-221.0
3649,-22.0,206.0
3650,244.0,131.0
3651,298.0,49.0
3652,0.0,-37.0
3653,-25.0,-134.0
3654,96.0,-231.0
3655,402.0,-304.0
3656,376.0,-344.0
3657,15.0,-359.0
3658,-20.0,-360.0
3659,-14.0,-353.0
3660,259.0,-334.0
3661,305.0,-296.0
3662,2.0,-247.0
3663,-27.0,-211.0
3664,35.0,-203.0
3665,358.0,-204.0
3666,382.0,-177.0
3667,66.0,-99.0
3668,-26.0,18.0
3669,53.0,151.0
3670,373.0,291.0
3671,430.0,428.0
3672,111.0,521.0
3673,-16.0,507.0
3674,103.0,356.0
3675,447.0,111.0
3676,493.0,-143.0
3677,192.0,-346.0
3678,-25.0,-470.0
3679,136.0,-510.0
3680,498.0,-459.0
3681,560.0,-329.0
3682,207.0,-171.0
3683,-28.0,-49.0
3684,135.0,6.0
3685,489.0,17.0
3686,558.0,24.0
3687,247.0,36.0
3688,-19.0,30.0
3689,142.0,-2.0
3690,534.0,-36.0
3691,617.0,-32.0
3692,301.0,8.0
3693,28.0,49.0
3694,169.0,65.0
3695,560.0,74.0
3696,672.0,104.0
3697,364.0,141.0
3698,54.0,139.0
3699,163.0,76.0
3700,559.0,-12.0
3701,717.0,-76.0
3702,445.0,-108.0
3703,178.0,-137.0
3704,302.0,-174.0
3705,676.0,-192.0
3706,795.0,-159.0
3707,487.0,-88.0
3708,167.0,-24.0
3709,263.0,7.0
3710,631.0,30.0
3711,402.0,90.0
3712,29.0,50.0
3713,74.0,-61.0
3714,424.0,-186.0
3715,606.0,-245.0
3716,362.0,-216.0
3717,16.0,-129.0
3718,67.0,-17.0
3719,456.0,121.0
3720,636.0,294.0
3721,389.0,468.0
3722,62.0,584.0
3723,122.0,614.0
3724,516.0,585.0
3725,691.0,527.0
3726,448.0,426.0
3727,125.0,238.0
3728,161.0,-41.0
3729,520.0,-345.0
3730,706.0,-579.0
3731,482.0,-703.0
3732,182.0,-741.0
3733,279.0,-724.0
3734,1012.0,-511.0
3735,894.0,-332.0
3736,669.0,-176.0
3737,786.0,-73.0
3738,1149.0,6.0
3739,1314.0,106.0
3740,1020.0,212.0
3741,592.0,255.0
3742,483.0,185.0
3743,764.0,18.0
3744,949.0,-196.0
3745,737.0,-437.0
3746,689.0,-1124.0
3747,891.0,-1039.0
3748,684.0,-671.0
3749,343.0,-70.0
3750,360.0,661.0
3751,708.0,1416.0
3752,945.0,2074.0
3753,753.0,2486.0
3754,410.0,2515.0
3755,414.0,2128.0
3756,780.0,1435.0
3757,1010.0,625.0
3758,775.0,-132.0
3759,355.0,-751.0
3760,290.0,-1190.0
3761,594.0,-1421.0
3762,850.0,-1432.0
3763,691.0,-1270.0
3764,328.0,-1032.0
3765,250.0,-799.0
3766,563.0,-583.0
3767,841.0,-351.0
3768,699.0,-97.0
3769,342.0,141.0
3770,873.0,586.0
3771,738.0,665.0
3772,404.0,647.0
3773,368.0,494.0
3774,711.0,245.0
3775,979.0,-14.0
3776,827.0,-225.0
3777,438.0,-384.0
3778,371.0,-503.0
3779,740.0,-565.0
3780,1050.0,-541.0
3781,944.0,-442.0
3782,591.0,-331.0
3783,495.0,-264.0
3784,836.0,-236.0
3785,1178.0,-195.0
3786,1106.0,-115.0
3787,767.0,-24.0
3788,683.0,38.0
3789,1003.0,75.0
3790,1292.0,115.0
3791,1159.0,160.0
3792,797.0,164.0
3793,688.0,92.0
3794,973.0,-26.0
3795,1292.0,-121.0
3796,1201.0,-155.0
3797,847.0,-158.0
3798,711.0,-170.0
3799,980.0,-182.0
3800,1292.0,-141.0
3801,1216.0,-18.0
3802,833.0,151.0
3803,661.0,313.0
3804,912.0,443.0
3805,1184.0,546.0
3806,1104.0,610.0
3807,725.0,589.0
3808,571.0,460.0
3809,842.0,269.0
3810,1162.0,104.0
3811,1121.0,15.0
3812,781.0,-14.0
3813,616.0,-26.0
3814,885.0,-22.0
3815,1246.0,29.0
3816,1232.0,133.0
3817,863.0,237.0
3818,676.0,275.0
3819,925.0,229.0
3820,1289.0,132.0
3821,1246.0,18.0
3822,911.0,-120.0
3823,725.0,-294.0
3824,975.0,-469.0
3825,1320.0,-580.0
3826,1312.0,-588.0
3827,958.0,-519.0
3828,769.0,-425.0
3829,983.0,-324.0
3830,1338.0,-190.0
3831,1336.0,-18.0
3832,962.0,145.0
3833,715.0,236.0
3834,919.0,243.0
3835,1273.0,210.0
3836,1260.0,180.0
3837,912.0,150.0
3838,679.0,93.0
3839,867.0,19.0
3840,1230.0,-21.0
3841,1248.0,1.0
3842,895.0,62.0
3843,672.0,111.0
3844,855.0,135.0
3845,1218.0,168.0
3846,1269.0,227.0
3847,986.0,277.0
3848,787.0,262.0
3849,992.0,176.0
3850,1311.0,67.0
3851,1320.0,-13.0
3852,963.0,-71.0
3853,717.0,-135.0
3854,910.0,-208.0
3855,1279.0,-250.0
3856,1331.0,-242.0
3857,1007.0,-224.0
3858,748.0,-252.0
3859,889.0,-324.0
3860,1259.0,-373.0
3861,1324.0,-330.0
3862,989.0,-196.0
3863,721.0,-24.0
3864,880.0,143.0
3865,1260.0,294.0
3866,1368.0,414.0
3867,1062.0,459.0
3868,783.0,389.0
3869,927.0,227.0
3870,1271.0,59.0
3871,1350.0,-37.0
3872,1043.0,-59.0
3873,794.0,-57.0
3874,951.0,-69.0
3875,1277.0,-86.0
3876,1374.0,-89.0
3877,1083.0,-91.0
3878,813.0,-121.0
3879,923.0,-173.0
3880,1283.0,-195.0
3881,1399.0,-143.0
3882,1112.0,-41.0
3883,815.0,45.0
3884,940.0,80.0
3885,1305.0,88.0
3886,1476.0,99.0
3887,1218.0,109.0
3888,926.0,84.0
3889,1019.0,24.0
3890,1389.0,-25.0
3891,1542.0,-26.0
3892,1252.0,5.0
3893,952.0,19.0
3894,1077.0,-8.0
3895,1449.0,-53.0
3896,1188.0,-78.0
3897,374.0,-89.0
3898,-20.0,-123.0
3899,-19.0,-188.0
3900,49.0,-237.0
3901,221.0,-220.0
3902,36.0,-147.0
3903,-27.0,-84.0
3904,-22.0,-59.0
3905,206.0,6.0
3906,366.0,244.0
3907,125.0,716.0
3908,-23.0,1375.0
3909,-24.0,2105.0
3910,220.0,2740.0
3911,424.0,3056.0
3912,222.0,2813.0
3913,-29.0,1891.0
3914,46.0,420.0
3915,426.0,-1235.0
3916,636.0,-2660.0
3917,384.0,-3557.0
3918,61.0,-3810.0
3919,111.0,-3450.0
3920,487.0,-2628.0
3921,728.0,-1576.0
3922,523.0,-540.0
3923,194.0,289.0
3924,233.0,826.0
3925,611.0,1078.0
3926,845.0,1109.0
3927,679.0,990.0
3928,415.0,778.0
3929,527.0,526.0
3930,995.0,302.0
3931,1365.0,173.0
3932,1281.0,146.0
3933,948.0,165.0
3934,886.0,162.0
3935,1160.0,126.0
3936,1312.0,91.0
3937,1029.0,68.0
3938,616.0,17.0
3939,575.0,-110.0
3940,912.0,-321.0
3941,1160.0,-573.0
3942,981.0,-816.0
3943,628.0,-1004.0
3944,590.0,-1062.0
3945,895.0,-888.0
3946,1133.0,-414.0
3947,943.0,306.0
3948,623.0,1096.0
3949,582.0,1742.0
3950,937.0,2096.0
3951,1221.0,2101.0
3952,1041.0,1760.0
3953,674.0,1123.0
3954,607.0,315.0
3955,1258.0,-1052.0
3956,1111.0,-1346.0
3957,775.0,-1397.0
3958,721.0,-1304.0
3959,1044.0,-1128.0
3960,1318.0,-892.0
3961,1156.0,-629.0
3962,786.0,-397.0
3963,704.0,-238.0
3964,1024.0,-137.0
3965,1303.0,-49.0
3966,1183.0,31.0
3967,841.0,64.0
3968,759.0,19.0
3969,1077.0,-67.0
3970,1383.0,-120.0
3971,1294.0,-97.0
3972,955.0,-27.0
3973,861.0,42.0
3974,1135.0,101.0
3975,1433.0,164.0
3976,1319.0,219.0
3977,956.0,218.0
3978,1152.0,-11.0
3979,1456.0,-140.0
3980,1356.0,-220.0
3981,995.0,-270.0
3982,890.0,-316.0
3983,1173.0,-337.0
3984,1480.0,-284.0
3985,1356.0,-146.0
3986,949.0,22.0
3987,786.0,156.0
3988,1039.0,233.0
3989,1359.0,275.0
3990,1275.0,290.0
3991,901.0,253.0
3992,757.0,143.0
3993,1057.0,-2.0
3994,1414.0,-106.0
3995,1344.0,-118.0
3996,947.0,-58.0
3997,768.0,24.0
3998,1012.0,111.0
3999,1348.0,215.0
4000,1313.0,323.0
4001,1040.0,130.0
4002,1392.0,-81.0
4003,1361.0,-258.0
4004,995.0,-377.0
4005,809.0,-440.0
4006,1039.0,-433.0
4007,1363.0,-325.0
4008,1338.0,-132.0
4009,1001.0,66.0
4010,799.0,183.0
4011,1048.0,198.0
4012,1415.0,157.0
4013,1116.0,62.0
4014,922.0,0.0
4015,1157.0,-54.0
4016,1507.0,-52.0
4017,1535.0,22.0
4018,1181.0,120.0
4019,932.0,172.0
4020,1130.0,159.0
4021,1503.0,115.0
4022,1548.0,69.0
4023,1224.0,5.0
4024,994.0,-101.0
4025,1190.0,-229.0
4026,1551.0,-309.0
4027,1596.0,-291.0
4028,1271.0,-190.0
4029,1033.0,-58.0
4030,1204.0,74.0
4031,1569.0,211.0
4032,1633.0,348.0
4033,1305.0,435.0
4034,1047.0,417.0
4035,1227.0,298.0
4036,1584.0,147.0
4037,1292.0,-35.0
4038,1037.0,-81.0
4039,1225.0,-117.0
4040,1596.0,-113.0
4041,1651.0,-54.0
4042,1323.0,26.0
4043,1068.0,71.0
4044,1224.0,65.0
4045,1585.0,54.0
4046,1652.0,78.0
4047,1329.0,124.0
4048,1065.0,138.0
4049,1204.0,100.0
4050,1567.0,48.0
4051,1644.0,23.0
4052,1319.0,13.0
4053,1072.0,-18.0
4054,1236.0,-76.0
4055,1600.0,-114.0
4056,1672.0,-90.0
4057,1348.0,-25.0
4058,1075.0,22.0
4059,1241.0,28.0
4060,1623.0,25.0
4061,1731.0,49.0
4062,1395.0,83.0
4063,1068.0,76.0
4064,1202.0,11.0
4065,1576.0,-64.0
4066,1705.0,-100.0
4067,1415.0,-98.0
4068,1113.0,-96.0
4069,1211.0,-116.0
4070,1576.0,-126.0
4071,1716.0,-93.0
4072,1422.0,-31.0
4073,1101.0,15.0
4074,1176.0,31.0
4075,1542.0,49.0
4076,1678.0,98.0
4077,1410.0,154.0
4078,1125.0,160.0
4079,1243.0,95.0
4080,1600.0,4.0
4081,1730.0,-54.0
4082,1459.0,-66.0
4083,1138.0,-62.0
4084,1205.0,-59.0
4085,1559.0,-36.0
4086,1751.0,23.0
4087,1490.0,88.0
4088,1168.0,94.0
4089,1236.0,20.0
4090,1611.0,-87.0
4091,1791.0,-161.0
4092,1534.0,-182.0
4093,1178.0,-174.0
4094,1188.0,-155.0
4095,1546.0,-106.0
4096,1706.0,-8.0
4097,1448.0,102.0
4098,1091.0,156.0
4099,1100.0,121.0
4100,1469.0,36.0
4101,1697.0,-30.0
4102,1463.0,-53.0
4103,1045.0,-52.0
4104,1040.0,-44.0
4105,1422.0,-7.0
4106,1652.0,87.0
4107,1434.0,218.0
4108,1070.0,321.0
4109,1069.0,340.0
4110,1391.0,286.0
4111,1642.0,200.0
4112,1447.0,107.0
4113,1094.0,-2.0
4114,1053.0,-129.0
4115,1363.0,-229.0
4116,1604.0,-254.0
4117,1410.0,-213.0
4118,1580.0,-169.0
4119,1893.0,-159.0
4120,1780.0,-114.0
4121,1516.0,-70.0
4122,1512.0,-55.0
4123,1783.0,-44.0
4124,1950.0,8.0
4125,1679.0,94.0
4126,1229.0,144.0
4127,1063.0,95.0
4128,1358.0,-55.0
4129,1620.0,-264.0
4130,1463.0,-501.0
4131,1095.0,-751.0
4132,1027.0,-961.0
4133,1313.0,-1016.0
4134,1558.0,-801.0
4135,1366.0,-295.0
4136,969.0,397.0
4137,872.0,1113.0
4138,1187.0,1708.0
4139,1478.0,2075.0
4140,1359.0,2125.0
4141,1157.0,363.0
4142,1463.0,-385.0
4143,1354.0,-916.0
4144,975.0,-1183.0
4145,872.0,-1220.0
4146,1177.0,-1082.0
4147,1476.0,-824.0
4148,1381.0,-523.0
4149,999.0,-273.0
4150,892.0,-135.0
4151,1201.0,-88.0
4152,1531.0,-67.0
4153,1427.0,-34.0
4154,1062.0,-11.0
4155,904.0,-35.0
4156,1168.0,-89.0
4157,1477.0,-118.0
4158,1392.0,-92.0
4159,1025.0,-42.0
4160,880.0,-15.0
4161,1167.0,-13.0
4162,1515.0,-3.0
4163,1470.0,29.0
4164,944.0,47.0
4165,1202.0,30.0
4166,1551.0,59.0
4167,1515.0,147.0
4168,1145.0,241.0
4169,967.0,270.0
4170,1219.0,218.0
4171,1556.0,125.0
4172,1545.0,26.0
4173,1183.0,-78.0
4174,989.0,-198.0
4175,1198.0,-302.0
4176,1548.0,-331.0
4177,1536.0,-262.0
4178,1160.0,-142.0
4179,954.0,-37.0
4180,1173.0,30.0
4181,1491.0,88.0
4182,1478.0,152.0
4183,1125.0,195.0
4184,904.0,184.0
4185,1101.0,127.0
4186,1435.0,81.0
4187,1427.0,81.0
4188,1074.0,103.0
4189,845.0,101.0
4190,1032.0,72.0
4191,1371.0,55.0
4192,1380.0,77.0
4193,1007.0,109.0
4194,775.0,104.0
4195,984.0,58.0
4196,1350.0,15.0
4197,1381.0,10.0
4198,1051.0,21.0
4199,799.0,4.0
4200,979.0,-44.0
4201,1374.0,-78.0
4202,1439.0,-64.0
4203,1104.0,-22.0
4204,856.0,-8.0
4205,1034.0,-38.0
4206,1411.0,-79.0
4207,1467.0,-99.0
4208,1146.0,-110.0
4209,875.0,-148.0
4210,1051.0,-213.0
4211,1392.0,-257.0
4212,1446.0,-241.0
4213,1120.0,-186.0
4214,858.0,-143.0
4215,982.0,-131.0
4216,1322.0,-114.0
4217,1390.0,-55.0
4218,1096.0,27.0
4219,812.0,86.0
4220,964.0,105.0
4221,1348.0,121.0
4222,815.0,240.0
4223,957.0,212.0
4224,1337.0,178.0
4225,1472.0,174.0
4226,1195.0,178.0
4227,888.0,138.0
4228,997.0,37.0
4229,1375.0,-80.0
4230,1499.0,-160.0
4231,1212.0,-198.0
4232,909.0,-221.0
4233,1014.0,-241.0
4234,1387.0,-232.0
4235,1540.0,-172.0
4236,1231.0,-91.0
4237,895.0,-46.0
4238,951.0,-57.0
4239,1299.0,-80.0
4240,1452.0,-61.0
4241,1152.0,1.0
4242,836.0,59.0
4243,916.0,79.0
4244,1280.0,79.0
4245,859.0,128.0
4246,936.0,115.0
4247,1287.0,119.0
4248,1450.0,173.0
4249,1189.0,252.0
4250,853.0,285.0
4251,889.0,229.0
4252,1251.0,116.0
4253,1428.0,1.0
4254,1182.0,-94.0
4255,867.0,-189.0
4256,951.0,-287.0
4257,1321.0,-342.0
4258,941.0,-81.0
4259,942.0,4.0
4260,1284.0,68.0
4261,1499.0,139.0
4262,1278.0,201.0
4263,944.0,200.0
4264,973.0,108.0
4265,1331.0,-32.0
4266,1538.0,-153.0
4267,1337.0,-224.0
4268,999.0,-256.0
4269,1002.0,-257.0
4270,1345.0,-201.0
4271,1535.0,-65.0
4272,1290.0,112.0
4273,945.0,245.0
4274,933.0,275.0
4275,1284.0,221.0
4276,1515.0,140.0
4277,1326.0,63.0
4278,981.0,-17.0
4279,943.0,-107.0
4280,1264.0,-164.0
4281,1273.0,-35.0
4282,938.0,88.0
4283,897.0,173.0
4284,1222.0,215.0
4285,1482.0,234.0
4286,1300.0,226.0
4287,931.0,158.0
4288,913.0,27.0
4289,1260.0,-107.0
4290,1527.0,-168.0
4291,1339.0,-135.0
4292,1014.0,-58.0
4293,1024.0,1.0
4294,1383.0,31.0
4295,1697.0,54.0
4296,1623.0,71.0
4297,1363.0,54.0
4298,1338.0,-15.0
4299,1619.0,-103.0
4300,1802.0,-151.0
4301,1551.0,-145.0
4302,1121.0,-131.0
4303,952.0,-153.0
4304,1209.0,-207.0
4305,1492.0,-259.0
4306,1368.0,-306.0
4307,992.0,-382.0
4308,893.0,-489.0
4309,1177.0,-556.0
4310,1456.0,-472.0
4311,1319.0,-185.0
4312,916.0,264.0
4313,784.0,776.0
4314,1087.0,1244.0
4315,850.0,1474.0
4316,746.0,982.0
4317,1031.0,328.0
4318,1336.0,-298.0
4319,1259.0,-751.0
4320,911.0,-983.0
4321,817.0,-1022.0
4322,1122.0,-903.0
4323,1443.0,-655.0
4324,1358.0,-334.0
4325,974.0,-34.0
4326,810.0,164.0
4327,1107.0,252.0
4328,1452.0,272.0
4329,1376.0,255.0
4330,1025.0,184.0
4331,908.0,42.0
4332,1181.0,-129.0
4333,1507.0,-251.0
4334,1438.0,-272.0
4335,1096.0,-210.0
4336,934.0,-108.0
4337,1178.0,13.0
4338,1527.0,162.0
4339,1494.0,316.0
4340,1135.0,409.0
4341,939.0,387.0
4342,1154.0,267.0
4343,1484.0,128.0
4344,1438.0,32.0
4345,1088.0,-19.0
4346,932.0,-54.0
4347,1184.0,-73.0
4348,1505.0,-52.0
4349,1480.0,11.0
4350,1115.0,75.0
4351,909.0,96.0
4352,1121.0,84.0
4353,1444.0,92.0
4354,1445.0,141.0
4355,1112.0,191.0
4356,884.0,181.0
4357,1087.0,100.0
4358,1450.0,-5.0
4359,1441.0,-88.0
4360,1051.0,-143.0
4361,812.0,-183.0
4362,991.0,-198.0
4363,1332.0,-153.0
4364,1372.0,-45.0
4365,1030.0,68.0
4366,775.0,118.0
4367,956.0,89.0
4368,1288.0,33.0
4369,1291.0,5.0
4370,931.0,8.0
4371,688.0,17.0
4372,867.0,23.0
4373,1254.0,50.0
4374,1304.0,105.0
4375,979.0,147.0
4376,745.0,126.0
4377,929.0,43.0
4378,1280.0,-38.0
4379,1304.0,-60.0
4380,959.0,-27.0
4381,677.0,11.0
4382,849.0,25.0
4383,1198.0,25.0
4384,1239.0,25.0
4385,925.0,0.0
4386,645.0,-85.0
4387,806.0,-210.0
4388,1155.0,-296.0
4389,1260.0,-278.0
4390,975.0,-168.0
4391,703.0,-28.0
4392,876.0,99.0
4393,1268.0,217.0
4394,1341.0,331.0
4395,1007.0,406.0
4396,703.0,391.0
4397,842.0,285.0
4398,1212.0,146.0
4399,1339.0,29.0
4400,1071.0,-66.0
4401,835.0,-175.0
4402,943.0,-303.0
4403,1312.0,-399.0
4404,1444.0,-409.0
4405,1163.0,-331.0
4406,847.0,-209.0
4407,940.0,-74.0
4408,1266.0,71.0
4409,1382.0,218.0
4410,1093.0,309.0
4411,763.0,282.0
4412,848.0,132.0
4413,1227.0,-64.0
4414,1375.0,-214.0
4415,1112.0,-282.0
4416,805.0,-283.0
4417,866.0,-235.0
4418,1208.0,-125.0
4419,1351.0,47.0
4420,1080.0,235.0
4421,1148.0,324.0
4422,1330.0,224.0
4423,1075.0,96.0
4424,780.0,-73.0
4425,862.0,-266.0
4426,1229.0,-416.0
4427,1385.0,-453.0
4428,1115.0,-372.0
4429,760.0,-234.0
4430,789.0,-100.0
4431,1124.0,12.0
4432,1318.0,106.0
4433,1080.0,154.0
4434,740.0,106.0
4435,798.0,-43.0
4436,1172.0,-225.0
4437,1376.0,-347.0
4438,1142.0,-367.0
4439,790.0,-305.0
4440,818.0,-198.0
4441,1152.0,-47.0
4442,1352.0,140.0
4443,781.0,394.0
4444,794.0,333.0
4445,1117.0,176.0
4446,1336.0,3.0
4447,1144.0,-135.0
4448,787.0,-242.0
4449,776.0,-318.0
4450,1125.0,-332.0
4451,1362.0,-250.0
4452,1154.0,-97.0
4453,809.0,49.0
4454,762.0,135.0
4455,1099.0,165.0
4456,1378.0,179.0
4457,1216.0,183.0
4458,874.0,150.0
4459,874.0,63.0
4460,1210.0,-40.0
4461,1492.0,-105.0
4462,1350.0,-115.0
4463,995.0,-105.0
4464,918.0,-105.0
4465,1191.0,-104.0
4466,1426.0,-72.0
4467,1251.0,-21.0
4468,904.0,-3.0
4469,856.0,-56.0
4470,1229.0,-154.0
4471,1512.0,-235.0
4472,1335.0,-265.0
4473,943.0,-255.0
4474,864.0,-219.0
4475,1156.0,-133.0
4476,1408.0,35.0
4477,1222.0,264.0
4478,844.0,466.0
4479,759.0,549.0
4480,1086.0,493.0
4481,1371.0,346.0
4482,1226.0,158.0
4483,840.0,-43.0
4484,701.0,-228.0
4485,976.0,-333.0
4486,1263.0,-294.0
4487,1154.0,-120.0
4488,797.0,92.0
4489,713.0,239.0
4490,1231.0,191.0
4491,900.0,94.0
4492,728.0,-27.0
4493,1013.0,-126.0
4494,1319.0,-146.0
4495,1227.0,-87.0
4496,842.0,-18.0
4497,697.0,-12.0
4498,992.0,-78.0
4499,1279.0,-168.0
4500,1184.0,-235.0
4501,856.0,-275.0
4502,764.0,-292.0
4503,1109.0,-260.0
4504,1516.0,-146.0
4505,1576.0,38.0
4506,1329.0,219.0
4507,1233.0,323.0
4508,1474.0,345.0
4509,1731.0,333.0
4510,1609.0,316.0
4511,1155.0,271.0
4512,900.0,153.0
4513,1114.0,-40.0
4514,1415.0,-273.0
4515,1343.0,-518.0
4516,991.0,-774.0
4517,817.0,-1018.0
4518,1003.0,-1158.0
4519,1286.0,-1070.0
4520,1193.0,-694.0
4521,815.0,-84.0
4522,621.0,619.0
4523,1176.0,1759.0
4524,1138.0,1981.0
4525,799.0,1867.0
4526,622.0,1420.0
4527,889.0,763.0
4528,1268.0,95.0
4529,1250.0,-419.0
4530,875.0,-724.0
4531,670.0,-850.0
4532,911.0,-840.0
4533,1268.0,-722.0
4534,1259.0,-537.0
4535,938.0,-362.0
4536,727.0,-267.0
4537,953.0,-259.0
4538,1294.0,-278.0
4539,1212.0,-270.0
4540,687.0,-233.0
4541,325.0,-192.0
4542,428.0,-142.0
4543,742.0,-47.0
4544,757.0,103.0
4545,450.0,256.0
4546,581.0,317.0
4547,1072.0,271.0
4548,1206.0,278.0
4549,964.0,379.0
4550,786.0,562.0
4551,1029.0,805.0
4552,1426.0,1073.0
4553,1460.0,1283.0
4554,1143.0,1297.0
4555,901.0,995.0
4556,1093.0,377.0
4557,1487.0,-423.0
4558,1549.0,-1225.0
4559,1208.0,-1879.0
4560,927.0,-2291.0
4561,1090.0,-2388.0
4562,1425.0,-2120.0
4563,1477.0,-1518.0
4564,1161.0,-720.0
4565,888.0,83.0
4566,1039.0,753.0
4567,1421.0,1229.0
4568,903.0,1337.0
4569,1068.0,988.0
4570,1444.0,610.0
4571,1535.0,306.0
4572,1208.0,92.0
4573,900.0,-75.0
4574,1003.0,-229.0
4575,1343.0,-351.0
4576,1437.0,-416.0
4577,1106.0,-439.0
4578,777.0,-460.0
4579,882.0,-489.0
4580,1244.0,-485.0
4581,1331.0,-413.0
4582,989.0,-294.0
4583,678.0,-181.0
4584,796.0,-95.0
4585,1151.0,-6.0
4586,1280.0,115.0
4587,983.0,247.0
4588,709.0,324.0
4589,833.0,316.0
4590,1222.0,259.0
4591,1368.0,203.0
4592,1106.0,155.0
4593,801.0,84.0
4594,891.0,-16.0
4595,1245.0,-105.0
4596,1379.0,-143.0
4597,1104.0,-148.0
4598,791.0,-176.0
4599,859.0,-248.0
4600,1074.0,364.0
4601,733.0,311.0
4602,765.0,216.0
4603,1095.0,114.0
4604,1281.0,45.0
4605,1053.0,1.0
4606,718.0,-60.0
4607,760.0,-152.0
4608,1134.0,-224.0
4609,1344.0,-214.0
4610,1122.0,-120.0
4611,791.0,0.0
4612,801.0,93.0
4613,1121.0,159.0
4614,1318.0,213.0
4615,1103.0,244.0
4616,780.0,211.0
4617,730.0,102.0
4618,887.0,-37.0
4619,787.0,-146.0
4620,142.0,-206.0
4621,-23.0,-243.0
4622,-22.0,-272.0
4623,-22.0,1465.0
4624,-16.0,627.0
4625,-21.0,-426.0
4626,-23.0,-2080.0
4627,-22.0,-2347.0
4628,-24.0,-2243.0
4629,-22.0,-1840.0
4630,-29.0,-1243.0
4631,-23.0,-593.0
4632,-21.0,-37.0
4633,-22.0,342.0
4634,-18.0,549.0
4635,-24.0,624.0
4636,-21.0,602.0
4637,-22.0,500.0
4638,-23.0,340.0
4639,-25.0,160.0
4640,-25.0,0.0
4641,-25.0,-115.0
4642,-23.0,-180.0
4643,-25.0,-203.0
4644,-18.0,-199.0
4645,-23.0,-181.0
4646,-26.0,-159.0
4647,-20.0,-137.0
4648,-26.0,-117.0
4649,-29.0,-101.0
4650,-20.0,-89.0
4651,-27.0,-80.0
4652,-22.0,-75.0
4653,-18.0,-73.0
4654,-18.0,-75.0
4655,-21.0,-79.0
4656,-21.0,-83.0
4657,-27.0,-83.0
4658,-20.0,-79.0
4659,-21.0,-70.0
4660,40.0,-59.0
4661,332.0,-49.0
4662,324.0,-41.0
4663,60.0,-38.0
4664,-4.0,-39.0
4665,322.0,-40.0
4666,686.0,-36.0
4667,638.0,-19.0
4668,313.0,6.0
4669,209.0,11.0
4670,509.0,-45.0
4671,855.0,-171.0
4672,812.0,-315.0
4673,465.0,-416.0
4674,383.0,-456.0
4675,735.0,-457.0
4676,1158.0,-435.0
4677,1161.0,-373.0
4678,831.0,-264.0
4679,672.0,-141.0
4680,902.0,-40.0
4681,1289.0,53.0
4682,1342.0,182.0
4683,1109.0,339.0
4684,1046.0,448.0
4685,1437.0,437.0
4686,1913.0,312.0
4687,1954.0,132.0
4688,1568.0,-42.0
4689,1309.0,-174.0
4690,1489.0,-221.0
4691,1760.0,-143.0
4692,1638.0,37.0
4693,1260.0,220.0
4694,1073.0,277.0
4695,1298.0,157.0
4696,1657.0,-345.0
4697,1293.0,-513.0
4698,1060.0,-508.0
4699,1264.0,-259.0
4700,1629.0,258.0
4701,1661.0,963.0
4702,1299.0,1653.0
4703,1086.0,2107.0
4704,1279.0,2201.0
4705,1641.0,1954.0
4706,1665.0,1462.0
4707,1133.0,174.0
4708,1350.0,-390.0
4709,1740.0,-741.0
4710,1805.0,-835.0
4711,1498.0,-738.0
4712,1272.0,-558.0
4713,1480.0,-363.0
4714,1872.0,-162.0
4715,1943.0,44.0
4716,1604.0,213.0
4717,1337.0,288.0
4718,1981.0,82.0
4719,1675.0,-6.0
4720,1415.0,-109.0
4721,1594.0,-212.0
4722,1980.0,-259.0
4723,2056.0,-216.0
4724,1751.0,-108.0
4725,1519.0,0.0
4726,1726.0,78.0
4727,2129.0,147.0
4728,2172.0,226.0
4729,1836.0,282.0
4730,1608.0,262.0
4731,1836.0,160.0
4732,2213.0,35.0
4733,2223.0,-52.0
4734,2034.0,-102.0
4735,1799.0,-159.0
4736,1947.0,-238.0
4737,2226.0,-295.0
4738,2226.0,-288.0
4739,1975.0,-152.0
4740,2225.0,-117.0
4741,2215.0,-57.0
4742,2113.0,-11.0
4743,1866.0,-29.0
4744,1968.0,-96.0
4745,2229.0,-138.0
4746,2230.0,-105.0
4747,2101.0,-27.0
4748,1799.0,32.0
4749,1877.0,56.0
4750,2228.0,73.0
4751,2223.0,102.0
4752,2059.0,120.0
4753,1758.0,94.0
4754,1808.0,30.0
4755,2147.0,-33.0
4756,2228.0,-65.0
4757,1964.0,-76.0
4758,1652.0,-95.0
4759,1739.0,-127.0
4760,2121.0,-148.0
4761,2228.0,-137.0
4762,1952.0,-106.0
4763,1597.0,-93.0
4764,1686.0,-119.0
4765,2073.0,-159.0
4766,2229.0,-168.0
4767,1950.0,-136.0
4768,1581.0,-104.0
4769,1648.0,-113.0
4770,2041.0,-160.0
4771,2216.0,-207.0
4772,1924.0,-235.0
4773,1598.0,-303.0
4774,1970.0,-343.0
4775,2138.0,-343.0
4776,1856.0,-302.0
4777,1491.0,-265.0
4778,1531.0,-268.0
4779,1920.0,-288.0
4780,2128.0,-280.0
4781,1861.0,-234.0
4782,1469.0,-191.0
4783,1484.0,-181.0
4784,1826.0,-183.0
4785,2027.0,-156.0
4786,1781.0,-103.0
4787,1423.0,-75.0
4788,1431.0,-106.0
4789,1783.0,-171.0
4790,2000.0,-222.0
4791,1755.0,-247.0
4792,1394.0,-278.0
4793,1367.0,-322.0
4794,1713.0,-336.0
4795,1338.0,-75.0
4796,1320.0,-58.0
4797,1659.0,-97.0
4798,1876.0,-136.0
4799,1682.0,-156.0
4800,1313.0,-183.0
4801,1270.0,-226.0
4802,1579.0,-250.0
4803,1827.0,-211.0
4804,1655.0,-126.0
4805,1294.0,-58.0
4806,1207.0,-53.0
4807,1545.0,-89.0
4808,1775.0,-114.0
4809,1593.0,-113.0
4810,1231.0,-117.0
4811,1184.0,-147.0
4812,1504.0,-175.0
4813,1768.0,-159.0
4814,1607.0,-100.0
4815,1239.0,-51.0
4816,1153.0,-47.0
4817,1679.0,-64.0
4818,1555.0,-21.0
4819,1194.0,18.0
4820,1097.0,13.0
4821,1389.0,-25.0
4822,1653.0,-58.0
4823,1525.0,-67.0
4824,1148.0,-75.0
4825,1078.0,-99.0
4826,1366.0,-108.0
4827,1641.0,-58.0
4828,1516.0,46.0
4829,1130.0,142.0
4830,1024.0,172.0
4831,1324.0,139.0
4832,1587.0,97.0
4833,1496.0,76.0
4834,1171.0,57.0
4835,1058.0,13.0
4836,1328.0,-39.0
4837,1585.0,-56.0
4838,1505.0,-22.0
4839,1148.0,25.0
4840,1332.0,55.0
4841,1587.0,85.0
4842,1452.0,141.0
4843,1059.0,173.0
4844,919.0,140.0
4845,1205.0,64.0
4846,1511.0,10.0
4847,1418.0,17.0
4848,1058.0,56.0
4849,912.0,80.0
4850,1139.0,89.0
4851,1435.0,123.0
4852,1343.0,202.0
4853,995.0,295.0
4854,852.0,360.0
4855,1139.0,389.0
4856,1459.0,406.0
4857,1375.0,412.0
4858,999.0,368.0
4859,816.0,251.0
4860,1091.0,100.0
4861,1450.0,0.0
4862,1405.0,-5.0
4863,1048.0,49.0
4864,910.0,94.0
4865,1225.0,97.0
4866,1649.0,81.0
4867,1693.0,72.0
4868,1424.0,67.0
4869,1269.0,49.0
4870,1444.0,33.0
4871,1688.0,58.0
4872,1601.0,126.0
4873,1150.0,183.0
4874,830.0,163.0
4875,1035.0,57.0
4876,1440.0,-87.0
4877,1445.0,-228.0
4878,1069.0,-360.0
4879,866.0,-477.0
4880,1076.0,-516.0
4881,1391.0,-379.0
4882,1361.0,-12.0
4883,1016.0,530.0
4884,796.0,1113.0
4885,1013.0,1596.0
4886,1346.0,1884.0
4887,1016.0,1581.0
4888,806.0,1006.0
4889,1050.0,304.0
4890,1421.0,-314.0
4891,1454.0,-693.0
4892,1089.0,-808.0
4893,847.0,-734.0
4894,1057.0,-558.0
4895,1433.0,-322.0
4896,1471.0,-68.0
4897,1140.0,135.0
4898,888.0,223.0
4899,1069.0,194.0
4900,1437.0,114.0
4901,1474.0,46.0
4902,1152.0,-4.0
4903,876.0,-56.0
4904,1047.0,-100.0
4905,1402.0,-89.0
4906,1457.0,0.0
4907,1144.0,120.0
4908,872.0,198.0
4909,1057.0,210.0
4910,1405.0,193.0
4911,1489.0,193.0
4912,1168.0,207.0
4913,918.0,198.0
4914,1092.0,161.0
4915,1463.0,133.0
4916,1571.0,141.0
4917,1270.0,161.0
4918,1016.0,143.0
4919,1198.0,80.0
4920,1607.0,15.0
4921,1748.0,-8.0
4922,1440.0,-6.0
4923,1150.0,-23.0
4924,1258.0,-72.0
4925,1627.0,-114.0
4926,1740.0,-109.0
4927,1439.0,-76.0
4928,1145.0,-68.0
4929,1243.0,-104.0
4930,1594.0,-149.0
4931,1673.0,-157.0
4932,1341.0,-129.0
4933,1032.0,-97.0
4934,1150.0,-61.0
4935,1501.0,15.0
4936,1606.0,160.0
4937,1284.0,337.0
4938,976.0,465.0
4939,1050.0,503.0
4940,1372.0,483.0
4941,1507.0,459.0
4942,1228.0,440.0
4943,886.0,394.0
4944,957.0,309.0
4945,1359.0,218.0
4946,1493.0,156.0
4947,1215.0,112.0
4948,874.0,47.0
4949,950.0,-42.0
4950,1328.0,-108.0
4951,1471.0,-103.0
4952,1199.0,-46.0
4953,870.0,-6.0
4954,920.0,-26.0
4955,1276.0,-83.0
4956,1217.0,-161.0
4957,871.0,-199.0
4958,891.0,-254.0
4959,1270.0,-290.0
4960,1467.0,-266.0
4961,1224.0,-195.0
4962,866.0,-131.0
4963,914.0,-110.0
4964,1273.0,-108.0
4965,1325.0,-5.0
4966,1074.0,-144.0
4967,1321.0,-244.0
4968,1123.0,-295.0
4969,750.0,-311.0
4970,698.0,-299.0
4971,1023.0,-231.0
4972,1282.0,-83.0
4973,1122.0,110.0
4974,783.0,257.0
4975,749.0,284.0
4976,1106.0,197.0
4977,1382.0,60.0
4978,1232.0,-75.0
4979,869.0,-201.0
4980,774.0,-313.0
4981,1094.0,-373.0
4982,1368.0,-346.0
4983,1191.0,-252.0
4984,812.0,-170.0
4985,734.0,-159.0
4986,1039.0,-209.0
4987,1295.0,-260.0
4988,1146.0,-275.0
4989,786.0,-267.0
4990,679.0,-251.0
4991,1245.0,-93.0
4992,1101.0,75.0
4993,744.0,230.0
4994,653.0,310.0
4995,955.0,316.0
4996,1233.0,293.0
4997,1144.0,266.0
4998,781.0,211.0
4999,692.0,108.0
5000,1009.0,-11.0
5001,1337.0,-87.0
5002,1245.0,-98.0
5003,880.0,-86.0
5004,772.0,-97.0
5005,1056.0,-127.0
5006,1379.0,-137.0
5007,1324.0,-115.0
5008,961.0,-102.0
5009,821.0,-137.0
5010,1079.0,-202.0
5011,1367.0,-245.0
5012,1296.0,-239.0
5013,930.0,-208.0
5014,1052.0,-166.0
5015,1360.0,-110.0
5016,1271.0,-13.0
5017,906.0,81.0
5018,744.0,127.0
5019,987.0,132.0
5020,1300.0,148.0
5021,1257.0,201.0
5022,883.0,259.0
5023,722.0,272.0
5024,985.0,236.0
5025,1339.0,191.0
5026,1299.0,165.0
5027,941.0,137.0
5028,773.0,82.0
5029,1023.0,16.0
5030,1348.0,-12.0
5031,1313.0,12.0
5032,949.0,48.0
5033,757.0,38.0
5034,998.0,-22.0
5035,1335.0,-86.0
5036,1314.0,-114.0
5037,959.0,-124.0
5038,848.0,-148.0
5039,1184.0,-179.0
5040,1589.0,-168.0
5041,1672.0,-90.0
5042,1412.0,18.0
5043,1282.0,100.0
5044,1515.0,140.0
5045,1819.0,172.0
5046,1743.0,213.0
5047,1307.0,225.0
5048,995.0,148.0
5049,1127.0,-23.0
5050,1438.0,-243.0
5051,1434.0,-462.0
5052,1106.0,-668.0
5053,881.0,-850.0
5054,1111.0,-941.0
5055,1440.0,-839.0
5056,1412.0,-488.0
5057,1023.0,64.0
5058,809.0,697.0
5059,1026.0,1291.0
5060,1413.0,2002.0
5061,1084.0,1949.0
5062,858.0,1560.0
5063,1039.0,920.0
5064,1397.0,209.0
5065,1079.0,-46.0
5066,1445.0,-40.0
5067,1527.0,-21.0
5068,1221.0,6.0
5069,954.0,2.0
5070,1115.0,-40.0
5071,1498.0,-82.0
5072,1584.0,-83.0
5073,1271.0,-57.0
5074,985.0,-42.0
5075,1152.0,-50.0
5076,1491.0,-51.0
5077,1571.0,-23.0
5078,1247.0,9.0
5079,987.0,0.0
5080,1129.0,-57.0
5081,1498.0,-119.0
5082,1619.0,-136.0
5083,1314.0,-118.0
5084,1036.0,-105.0
5085,1709.0,-240.0
5086,1822.0,-252.0
5087,1524.0,-198.0
5088,1187.0,-134.0
5089,1237.0,-99.0
5090,1564.0,-82.0
5091,1677.0,-63.0
5092,1357.0,-58.0
5093,989.0,-97.0
5094,1031.0,-166.0
5095,1364.0,-190.0
5096,1470.0,-104.0
5097,1195.0,82.0
5098,885.0,297.0
5099,1113.0,693.0
5100,778.0,625.0
5101,851.0,478.0
5102,1235.0,311.0
5103,1394.0,182.0
5104,1137.0,86.0
5105,836.0,-24.0
5106,875.0,-171.0
5107,1251.0,-310.0
5108,1443.0,-376.0
5109,1184.0,-362.0
5110,829.0,-317.0
5111,880.0,-284.0
5112,1232.0,-257.0
5113,1428.0,-213.0
5114,1193.0,-164.0
5115,860.0,-155.0
5116,914.0,-197.0
5117,1258.0,-246.0
5118,1455.0,-240.0
5119,1261.0,-172.0
5120,936.0,-92.0
5121,1251.0,-3.0
5122,1433.0,50.0
5123,1197.0,111.0
5124,856.0,129.0
5125,839.0,76.0
5126,1155.0,-10.0
5127,1365.0,-78.0
5128,1170.0,-113.0
5129,784.0,-145.0
5130,747.0,-185.0
5131,1103.0,-197.0
5132,1341.0,-133.0
5133,1155.0,-3.0
5134,800.0,130.0
5135,770.0,214.0
5136,1107.0,251.0
5137,1338.0,266.0
5138,1145.0,262.0
5139,799.0,209.0
5140,758.0,99.0
5141,1063.0,-28.0
5142,1308.0,-117.0
5143,1146.0,-154.0
5144,742.0,-227.0
5145,1081.0,-273.0
5146,1343.0,-267.0
5147,1139.0,-196.0
5148,769.0,-105.0
5149,719.0,-39.0
5150,1044.0,4.0
5151,1314.0,58.0
5152,1157.0,120.0
5153,804.0,148.0
5154,737.0,105.0
5155,1032.0,23.0
5156,1304.0,-37.0
5157,1171.0,-49.0
5158,798.0,-40.0
5159,731.0,-44.0
5160,1031.0,-51.0
5161,1321.0,-26.0
5162,1171.0,28.0
5163,780.0,62.0
5164,690.0,36.0
5165,1011.0,-21.0
5166,1290.0,-51.0
5167,632.0,19.0
5168,935.0,4.0
5169,1256.0,6.0
5170,1157.0,41.0
5171,778.0,77.0
5172,669.0,79.0
5173,959.0,60.0
5174,1263.0,66.0
5175,1173.0,109.0
5176,790.0,151.0
5177,673.0,149.0
5178,992.0,111.0
5179,1295.0,81.0
5180,1214.0,75.0
5181,861.0,56.0
5182,723.0,-9.0
5183,1038.0,-101.0
5184,1400.0,-153.0
5185,1330.0,-135.0
5186,986.0,-79.0
5187,856.0,-37.0
5188,1141.0,-18.0
5189,1496.0,8.0
5190,1423.0,53.0
5191,1049.0,82.0
5192,870.0,58.0
5193,1117.0,-3.0
5194,1417.0,-51.0
5195,1365.0,-57.0
5196,990.0,-55.0
5197,771.0,-82.0
5198,1004.0,-125.0
5199,1316.0,-127.0
5200,1261.0,-56.0
5201,868.0,54.0
5202,655.0,156.0
5203,877.0,241.0
5204,1195.0,337.0
5205,1152.0,451.0
5206,805.0,539.0
5207,619.0,550.0
5208,838.0,488.0
5209,1175.0,409.0
5210,1151.0,350.0
5211,804.0,298.0
5212,643.0,220.0
5213,862.0,126.0
5214,1198.0,60.0
5215,1221.0,43.0
5216,1002.0,36.0
5217,889.0,-10.0
5218,1225.0,-97.0
5219,1710.0,-169.0
5220,1800.0,-189.0
5221,1451.0,-178.0
5222,1171.0,-178.0
5223,1325.0,-192.0
5224,1605.0,-183.0
5225,1519.0,-144.0
5226,1078.0,-128.0
5227,775.0,-209.0
5228,958.0,-402.0
5229,1331.0,-645.0
5230,1361.0,-848.0
5231,1003.0,-949.0
5232,725.0,-903.0
5233,900.0,-661.0
5234,1264.0,-184.0
5235,1301.0,489.0
5236,952.0,1209.0
5237,1256.0,1954.0
5238,1295.0,1588.0
5239,951.0,1009.0
5240,688.0,311.0
5241,866.0,-364.0
5242,1267.0,-864.0
5243,1343.0,-1093.0
5244,1037.0,-1077.0
5245,751.0,-916.0
5246,892.0,-697.0
5247,1219.0,-447.0
5248,1300.0,-181.0
5249,1010.0,52.0
5250,715.0,192.0
5251,840.0,229.0
5252,1213.0,207.0
5253,1312.0,172.0
5254,1007.0,119.0
5255,719.0,28.0
5256,855.0,-78.0
5257,1229.0,-132.0
5258,1338.0,-88.0
5259,1039.0,21.0
5260,767.0,118.0
5261,898.0,154.0
5262,1280.0,144.0
5263,1391.0,121.0
5264,1115.0,83.0
5265,880.0,6.0
5266,1026.0,-99.0
5267,1403.0,-184.0
5268,1562.0,-202.0
5269,1284.0,-173.0
5270,967.0,-153.0
5271,1083.0,-165.0
5272,1468.0,-175.0
5273,1628.0,-144.0
5274,1378.0,-90.0
5275,1147.0,-72.0
5276,1325.0,-114.0
5277,1778.0,-178.0
5278,2032.0,-209.0
5279,1838.0,-195.0
5280,1632.0,-167.0
5281,2203.0,-134.0
5282,2229.0,154.0
5283,2230.0,185.0
5284,2221.0,91.0
5285,2228.0,-89.0
5286,2231.0,-292.0
5287,2228.0,-506.0
5288,2227.0,-742.0
5289,2225.0,-949.0
5290,2230.0,-1016.0
5291,2227.0,-878.0
5292,2231.0,-574.0
5293,2227.0,-187.0
5294,2227.0,237.0
5295,2230.0,695.0
5296,2226.0,1134.0
5297,2223.0,1437.0
5298,2229.0,1515.0
5299,2233.0,1390.0
5300,2228.0,1146.0
5301,2232.0,845.0
5302,2227.0,510.0
5303,2232.0,179.0
5304,2234.0,-210.0
5305,2231.0,-142.0
5306,2230.0,-66.0
5307,2229.0,13.0
5308,2231.0,85.0
5309,2232.0,140.0
5310,2231.0,170.0
5311,2227.0,178.0
5312,2223.0,171.0
5313,2227.0,154.0
5314,2227.0,132.0
5315,2226.0,107.0
5316,2228.0,81.0
5317,2227.0,56.0
5318,2228.0,33.0
5319,2225.0,15.0
5320,2065.0,3.0
5321,1998.0,-2.0
5322,2222.0,-4.0
5323,2223.0,-5.0
5324,2212.0,-9.0
5325,1920.0,-17.0
5326,1847.0,-33.0
5327,2163.0,-59.0
5328,2228.0,-78.0
5329,2161.0,-65.0
5330,1799.0,-12.0
5331,1719.0,56.0
5332,2048.0,98.0
5333,2221.0,96.0
5334,2051.0,64.0
5335,1650.0,21.0
5336,1561.0,-37.0
5337,1879.0,-122.0
5338,2177.0,-205.0
5339,1985.0,-243.0
5340,1554.0,-229.0
5341,1481.0,-203.0
5342,1805.0,-202.0
5343,2089.0,-212.0
5344,1936.0,-190.0
5345,1703.0,-78.0
5346,1988.0,-103.0
5347,1837.0,-131.0
5348,1455.0,-165.0
5349,1322.0,-229.0
5350,1621.0,-315.0
5351,1942.0,-378.0
5352,1812.0,-385.0
5353,1407.0,-357.0
5354,1270.0,-335.0
5355,1548.0,-320.0
5356,1839.0,-279.0
5357,1725.0,-201.0
5358,1353.0,-130.0
5359,1183.0,-113.0
5360,1455.0,-149.0
5361,1761.0,-190.0
5362,1681.0,-212.0
5363,1284.0,-236.0
5364,1131.0,-281.0
5365,1409.0,-322.0
5366,1730.0,-307.0
5367,1056.0,-99.0
5368,1319.0,-107.0
5369,1650.0,-116.0
5370,1593.0,-102.0
5371,1243.0,-95.0
5372,1069.0,-133.0
5373,1311.0,-202.0
5374,1638.0,-246.0
5375,1573.0,-235.0
5376,1179.0,-194.0
5377,989.0,-166.0
5378,1243.0,-151.0
5379,1557.0,-114.0
5380,1513.0,-49.0
5381,1125.0,-5.0
5382,878.0,-32.0
5383,1083.0,-115.0
5384,1420.0,-183.0
5385,1412.0,-182.0
5386,1046.0,-130.0
5387,837.0,-72.0
5388,1046.0,-25.0
5389,1035.0,172.0
5390,817.0,184.0
5391,989.0,154.0
5392,1339.0,134.0
5393,1320.0,147.0
5394,960.0,153.0
5395,739.0,98.0
5396,963.0,-16.0
5397,1303.0,-128.0
5398,1333.0,-187.0
5399,993.0,-197.0
5400,755.0,-193.0
5401,974.0,-180.0
5402,1398.0,-125.0
5403,1508.0,-14.0
5404,1254.0,109.0
5405,1147.0,182.0
5406,1405.0,186.0
5407,1721.0,161.0
5408,1665.0,143.0
5409,1246.0,122.0
5410,914.0,62.0
5411,973.0,-31.0
5412,1272.0,-118.0
5413,1283.0,-175.0
5414,956.0,-245.0
5415,708.0,-377.0
5416,847.0,-547.0
5417,1190.0,-645.0
5418,1234.0,-553.0
5419,863.0,-234.0
5420,578.0,265.0
5421,726.0,862.0
5422,1091.0,1458.0
5423,1147.0,1928.0
5424,834.0,2120.0
5425,575.0,1938.0
5426,712.0,1419.0
5427,1085.0,729.0
5428,1184.0,67.0
5429,876.0,-440.0
5430,595.0,-751.0
5431,690.0,-864.0
5432,1088.0,-788.0
5433,1185.0,-568.0
5434,890.0,-300.0
5435,608.0,-86.0
5436,699.0,26.0
5437,1053.0,73.0
5438,1217.0,105.0
5439,909.0,130.0
5440,571.0,124.0
5441,659.0,86.0
5442,1031.0,59.0
5443,1197.0,82.0
5444,908.0,136.0
5445,591.0,173.0
5446,699.0,166.0
5447,1072.0,146.0
5448,1202.0,151.0
5449,938.0,176.0
5450,635.0,185.0
5451,713.0,161.0
5452,1070.0,137.0
5453,1231.0,145.0
5454,1017.0,171.0
5455,767.0,161.0
5456,879.0,95.0
5457,1223.0,16.0
5458,1374.0,-17.0
5459,1114.0,-1.0
5460,770.0,21.0
5461,791.0,28.0
5462,1151.0,42.0
5463,1354.0,88.0
5464,1109.0,138.0
5465,754.0,126.0
5466,764.0,34.0
5467,1148.0,-81.0
5468,1355.0,-138.0
5469,1126.0,-102.0
5470,787.0,0.0
5471,776.0,137.0
5472,1103.0,301.0
5473,1271.0,479.0
5474,1021.0,621.0
5475,658.0,657.0
5476,655.0,563.0
5477,996.0,394.0
5478,1185.0,228.0
5479,950.0,107.0
5480,570.0,13.0
5481,526.0,-64.0
5482,844.0,-100.0
5483,1070.0,-49.0
5484,877.0,79.0
5485,537.0,222.0
5486,507.0,316.0
5487,833.0,352.0
5488,1074.0,358.0
5489,863.0,336.0
5490,495.0,264.0
5491,464.0,145.0
5492,801.0,28.0
5493,1046.0,-30.0
5494,887.0,-36.0
5495,539.0,-52.0
5496,467.0,-124.0
5497,765.0,-227.0
5498,1059.0,-295.0
5499,907.0,-297.0
5500,540.0,-259.0
5501,488.0,-218.0
5502,807.0,-173.0
5503,1087.0,-107.0
5504,913.0,-34.0
5505,548.0,-1.0
5506,492.0,-32.0
5507,817.0,-91.0
5508,1058.0,-118.0
5509,878.0,-95.0
5510,495.0,-66.0
5511,431.0,-76.0
5512,778.0,-115.0
5513,1072.0,-133.0
5514,922.0,-110.0
5515,551.0,-79.0
5516,455.0,-73.0
5517,770.0,-80.0
5518,1074.0,-51.0
5519,954.0,23.0
5520,588.0,97.0
5521,471.0,114.0
5522,770.0,78.0
5523,1055.0,31.0
5524,927.0,-4.0
5525,555.0,-58.0
5526,448.0,-148.0
5527,776.0,-240.0
5528,1083.0,-271.0
5529,962.0,-224.0
5530,580.0,-146.0
5531,439.0,-94.0
5532,757.0,-69.0
5533,1071.0,-27.0
5534,960.0,47.0
5535,571.0,115.0
5536,428.0,128.0
5537,712.0,87.0
5538,1043.0,36.0
5539,990.0,3.0
5540,631.0,-33.0
5541,471.0,-92.0
5542,753.0,-150.0
5543,1090.0,-152.0
5544,1060.0,-85.0
5545,707.0,-1.0
5546,525.0,39.0
5547,779.0,34.0
5548,1111.0,22.0
5549,1087.0,26.0
5550,709.0,16.0
5551,553.0,-42.0
5552,814.0,-133.0
5553,1186.0,-200.0
5554,793.0,-186.0
5555,600.0,-166.0
5556,850.0,-148.0
5557,1188.0,-94.0
5558,1133.0,5.0
5559,759.0,105.0
5560,528.0,146.0
5561,749.0,121.0
5562,1067.0,75.0
5563,1075.0,43.0
5564,751.0,12.0
5565,548.0,-44.0
5566,756.0,-107.0
5567,1080.0,-118.0
5568,1072.0,-45.0
5569,723.0,74.0
5570,514.0,177.0
5571,705.0,238.0
5572,1085.0,281.0
5573,1083.0,314.0
5574,736.0,298.0
5575,510.0,191.0
5576,723.0,14.0
5577,1078.0,-149.0
5578,1096.0,-235.0
5579,755.0,-243.0
5580,520.0,-217.0
5581,785.0,-179.0
5582,1217.0,-117.0
5583,1350.0,-29.0
5584,1147.0,43.0
5585,1018.0,53.0
5586,1221.0,6.0
5587,1508.0,-38.0
5588,1463.0,-33.0
5589,1055.0,3.0
5590,746.0,14.0
5591,828.0,-30.0
5592,1144.0,-116.0
5593,1192.0,-229.0
5594,864.0,-390.0
5595,576.0,-613.0
5596,732.0,-832.0
5597,1113.0,-910.0
5598,1147.0,-736.0
5599,796.0,-306.0
5600,507.0,284.0
5601,644.0,904.0
5602,985.0,1434.0
5603,1047.0,1761.0
5604,676.0,1783.0
5605,376.0,1460.0
5606,563.0,874.0
5607,999.0,203.0
5608,1111.0,-370.0
5609,814.0,-754.0
5610,499.0,-945.0
5611,577.0,-966.0
5612,888.0,-826.0
5613,940.0,-549.0
5614,648.0,-214.0
5615,148.0,66.0
5616,57.0,221.0
5617,337.0,251.0
5618,432.0,190.0
5619,95.0,62.0
5620,-27.0,-116.0
5621,-20.0,-284.0
5622,244.0,-344.0
5623,368.0,-231.0
5624,161.0,37.0
5625,-27.0,381.0
5626,51.0,724.0
5627,408.0,1024.0
5628,526.0,1233.0
5629,153.0,1260.0
5630,-20.0,1030.0
5631,-25.0,556.0
5632,149.0,-43.0
5633,279.0,-618.0
5634,74.0,-1071.0
5635,-24.0,-1368.0
5636,-20.0,-1496.0
5637,-22.0,-1429.0
5638,-20.0,-1176.0
5639,-22.0,-807.0
5640,-25.0,-411.0
5641,-22.0,-33.0
5642,-15.0,329.0
5643,-20.0,656.0
5644,-23.0,866.0
5645,-20.0,875.0
5646,-27.0,695.0
5647,-23.0,431.0
5648,-23.0,185.0
5649,-21.0,-14.0
5650,-29.0,-185.0
5651,-21.0,-325.0
5652,-20.0,-416.0
5653,-24.0,-455.0
5654,-23.0,-472.0
5655,-22.0,-478.0
5656,-27.0,-446.0
5657,-19.0,-344.0
5658,311.0,-189.0
5659,819.0,-44.0
5660,1180.0,67.0
5661,1193.0,60.0
5662,1171.0,49.0
5663,1156.0,49.0
5664,1148.0,66.0
5665,1140.0,90.0
5666,1139.0,60.0
5667,1128.0,-116.0
5668,1015.0,-511.0
5669,878.0,-1110.0
5670,947.0,-1780.0
5671,1210.0,-2302.0
5672,1142.0,-2436.0
5673,751.0,-2019.0
5674,220.0,-1050.0
5675,-13.0,275.0
5676,-10.0,1640.0
5677,-23.0,2728.0
5678,475.0,3336.0
5679,1598.0,3384.0
5680,2232.0,2913.0
5681,2223.0,2089.0
5682,2228.0,243.0
5683,2226.0,709.0
5684,2223.0,1208.0
5685,2230.0,1279.0
5686,2231.0,525.0
5687,2228.0,-1132.0
5688,2230.0,-3341.0
5689,2225.0,-5410.0
5690,2229.0,-6577.0
5691,2219.0,-6303.0
5692,1722.0,-4490.0
5693,-23.0,-1565.0
5694,-21.0,1655.0
5695,-25.0,4311.0
5696,-23.0,5834.0
5697,-29.0,6099.0
5698,-16.0,5322.0
5699,-19.0,3892.0
5700,-23.0,2266.0
5701,-25.0,917.0
5702,-18.0,233.0
5703,-23.0,1214.0
5704,227.0,2425.0
5705,745.0,3510.0
5706,1028.0,3934.0
5707,1102.0,3313.0
5708,1121.0,1609.0
5709,1150.0,-774.0
5710,1148.0,-3143.0
5711,1128.0,-4827.0
5712,1152.0,-5467.0
5713,1180.0,-5097.0
5714,1229.0,-4064.0
5715,1491.0,-2860.0
5716,2230.0,-1914.0
5717,2229.0,-1400.0
5718,2229.0,-1192.0
5719,2229.0,-993.0
5720,2217.0,-555.0
5721,1724.0,178.0
5722,1249.0,1081.0
5723,1083.0,1915.0
5724,1135.0,2411.0
5725,1147.0,2363.0
5726,1108.0,584.0
5727,1133.0,-730.0
5728,1183.0,-1829.0
5729,1204.0,-2306.0
5730,1178.0,-1909.0
5731,1152.0,-672.0
5732,1142.0,1073.0
5733,1173.0,2813.0
5734,1788.0,4033.0
5735,2232.0,4376.0
5736,2226.0,3729.0
5737,2225.0,2257.0
5738,2231.0,372.0
5739,2230.0,-1404.0
5740,2240.0,-2647.0
5741,2232.0,-3165.0
5742,2240.0,-3028.0
5743,2229.0,-2500.0
5744,2231.0,-1902.0
5745,2233.0,-1486.0
5746,2228.0,-1344.0
5747,2231.0,-1382.0
5748,2233.0,-527.0
5749,2234.0,361.0
5750,2226.0,1326.0
5751,2232.0,2109.0
5752,2223.0,2519.0
5753,2176.0,2486.0
5754,1708.0,2064.0
5755,1282.0,1401.0
5756,1107.0,686.0
5757,1097.0,79.0
5758,1144.0,-344.0
5759,1209.0,-600.0
5760,1203.0,-741.0
5761,1164.0,-799.0
5762,1119.0,-748.0
5763,1168.0,-524.0
5764,1055.0,-70.0
5765,763.0,602.0
5766,664.0,1388.0
5767,551.0,2097.0
5768,625.0,2498.0
5769,915.0,2405.0
5770,1120.0,1749.0
5771,944.0,634.0
5772,630.0,-663.0
5773,355.0,-1780.0
5774,439.0,-2398.0
5775,502.0,-2357.0
5776,130.0,-1711.0
5777,-24.0,-713.0
5778,-24.0,262.0
5779,-24.0,873.0
5780,-25.0,963.0
5781,-23.0,623.0
5782,-23.0,-290.0
5783,-20.0,-384.0
5784,-23.0,-118.0
5785,-25.0,410.0
5786,-23.0,988.0
5787,-21.0,1384.0
5788,-24.0,1443.0
5789,-30.0,1143.0
5790,2232.0,569.0
5791,2227.0,206.0
5792,1692.0,-3575.0
5793,1280.0,-4682.0
5794,1102.0,-4917.0
5795,1080.0,-3988.0
5796,1103.0,-1968.0
5797,1118.0,660.0
5798,1130.0,3165.0
5799,1135.0,4881.0
5800,1135.0,5495.0
5801,1113.0,5098.0
5802,1027.0,4067.0
5803,718.0,2879.0
5804,662.0,1916.0
5805,860.0,1303.0
5806,1309.0,884.0
5807,1646.0,374.0
5808,1533.0,-411.0
5809,1474.0,-1428.0
5810,1227.0,-2431.0
5811,674.0,-3119.0
5812,-19.0,-3269.0
5813,-21.0,-2834.0
5814,-25.0,-980.0
5815,-18.0,-229.0
5816,-24.0,34.0
5817,-27.0,-212.0
5818,-19.0,-718.0
5819,146.0,-1043.0
5820,671.0,-771.0
5821,1036.0,247.0
5822,1167.0,1799.0
5823,1183.0,3387.0
5824,1191.0,4444.0
5825,1155.0,3617.0
5826,1141.0,1868.0
5827,1147.0,-219.0
5828,1163.0,-2143.0
5829,1180.0,-3565.0
5830,1264.0,-4383.0
5831,1497.0,-4647.0
5832,2094.0,-4436.0
5833,2232.0,-3790.0
5834,2231.0,-2723.0
5835,2228.0,-1288.0
5836,2231.0,1955.0
5837,2228.0,3168.0
5838,2230.0,3735.0
5839,2230.0,3527.0
5840,2208.0,2588.0
5841,-16.0,1133.0
5842,-20.0,-499.0
5843,-20.0,-1946.0
5844,-23.0,-2912.0
5845,-22.0,-3226.0
5846,-21.0,-2870.0
5847,-27.0,-1995.0
5848,-25.0,-855.0
5849,-24.0,343.0
5850,-24.0,1544.0
5851,-25.0,2754.0
5852,-33.0,3926.0
5853,-21.0,4892.0
5854,-22.0,5385.0
5855,-19.0,5112.0
5856,-25.0,3875.0
5857,-26.0,1719.0
5858,872.0,-5271.0
5859,1132.0,-5865.0
5860,1208.0,-5312.0
5861,1192.0,-3913.0
5862,1164.0,-2133.0
5863,1140.0,-438.0
5864,1133.0,868.0
5865,1160.0,1699.0
5866,668.0,2091.0
5867,-20.0,2060.0
5868,-20.0,1584.0
5869,-23.0,691.0
5870,-21.0,-427.0
5871,-24.0,-1444.0
5872,-20.0,-2024.0
5873,-21.0,-1966.0
5874,-23.0,-1255.0
5875,-23.0,-43.0
5876,-21.0,1412.0
5877,-16.0,2807.0
5878,-25.0,3858.0
5879,-19.0,4358.0
5880,-20.0,3361.0
5881,-21.0,1986.0
5882,-26.0,301.0
5883,-25.0,-1372.0
5884,-26.0,-2708.0
5885,-29.0,-3467.0
5886,-20.0,-3560.0
5887,-33.0,-3054.0
5888,-23.0,-2144.0
5889,-31.0,-1099.0
5890,-22.0,-173.0
5891,-18.0,488.0
5892,-21.0,872.0
5893,-27.0,1039.0
5894,-27.0,1052.0
5895,-22.0,942.0
5896,-16.0,734.0
5897,-22.0,471.0
5898,-22.0,211.0
5899,-16.0,0.0
5900,-25.0,-138.0
5901,-30.0,-208.0
5902,-24.0,-226.0
5903,1613.0,-212.0
5904,2226.0,-184.0
5905,2229.0,-156.0
5906,2229.0,-133.0
5907,2232.0,-119.0
5908,2230.0,-106.0
5909,2234.0,-59.0
5910,2229.0,40.0
5911,2226.0,111.0
5912,2233.0,-56.0
5913,2233.0,-669.0
5914,2234.0,-4863.0
5915,2231.0,-4415.0
5916,2232.0,-2857.0
5917,2240.0,-484.0
5918,2229.0,2081.0
5919,2238.0,4146.0
5920,2234.0,5244.0
5921,2229.0,5257.0
5922,2240.0,4363.0
5923,2232.0,2939.0
5924,2227.0,1427.0
5925,2224.0,177.0
5926,2230.0,-666.0
5927,2229.0,-1385.0
5928,2240.0,-1199.0
5929,2234.0,-844.0
5930,2231.0,-405.0
5931,2229.0,10.0
5932,2223.0,323.0
5933,2232.0,505.0
5934,2233.0,568.0
5935,2233.0,549.0
5936,2230.0,485.0
5937,2232.0,407.0
5938,2228.0,334.0
5939,2230.0,276.0
5940,2236.0,237.0
5941,2231.0,217.0
5942,2232.0,210.0
5943,2230.0,212.0
5944,2228.0,216.0
5945,2232.0,218.0
5946,2230.0,213.0
5947,2231.0,202.0
5948,2228.0,185.0
5949,2227.0,167.0
5950,2215.0,151.0
5951,2215.0,136.0
5952,2238.0,124.0
5953,2234.0,112.0
5954,2231.0,102.0
5955,2225.0,90.0
5956,2229.0,79.0
5957,2233.0,67.0
5958,2226.0,56.0
5959,2229.0,48.0
5960,2221.0,41.0
5961,2226.0,33.0
5962,1991.0,21.0
5963,1452.0,3.0
5964,1087.0,-17.0
5965,1040.0,-40.0
5966,1077.0,-60.0
5967,1117.0,-76.0
5968,1152.0,-90.0
5969,1888.0,-115.0
5970,2230.0,-150.0
5971,2229.0,-149.0
5972,336.0,-18.0
5973,926.0,323.0
5974,2229.0,876.0
5975,2223.0,1533.0
5976,1686.0,2089.0
5977,1022.0,2261.0
5978,1017.0,1758.0
5979,1290.0,483.0
5980,1642.0,-1267.0
5981,1569.0,-2894.0
5982,1655.0,-3856.0
5983,2225.0,-1998.0
5984,2237.0,-601.0
5985,2234.0,579.0
5986,2223.0,1300.0
5987,2232.0,1573.0
5988,2228.0,1578.0
5989,2232.0,1391.0
5990,704.0,84.0
5991,682.0,1246.0
5992,546.0,1847.0
5993,563.0,1941.0
5994,772.0,1840.0
5995,925.0,1824.0
5996,972.0,1982.0
5997,993.0,2235.0
5998,1044.0,2412.0
5999,1053.0,2312.0
6000,2228.0,1788.0
6001,640.0,836.0
6002,-18.0,-380.0
6003,-26.0,-1602.0
6004,-26.0,-3294.0
6005,-22.0,-3048.0
6006,-27.0,-2612.0
6007,-23.0,-2142.0
6008,-24.0,-1608.0
6009,-25.0,-848.0
6010,-26.0,246.0
6011,-23.0,1614.0
6012,-27.0,3013.0
6013,-20.0,4085.0
6014,-23.0,4460.0
6015,-25.0,3900.0
6016,-20.0,2442.0
6017,-23.0,458.0
6018,377.0,-1491.0
6019,335.0,-2935.0
6020,493.0,-3639.0
6021,529.0,-3583.0
6022,500.0,-2922.0
6023,429.0,-1949.0
6024,1243.0,-447.0
6025,1182.0,-270.0
6026,1160.0,-100.0
6027,1151.0,212.0
6028,1158.0,771.0
6029,1159.0,1500.0
6030,1184.0,2095.0
6031,1165.0,2158.0
6032,1173.0,1422.0
6033,1161.0,-64.0
6034,1158.0,-1893.0
6035,1156.0,-3422.0
6036,1143.0,-4060.0
6037,1139.0,-3536.0
6038,1910.0,1696.0
6039,2077.0,2770.0
6040,2065.0,3005.0
6041,2016.0,2565.0
6042,2159.0,1791.0
6043,2232.0,1026.0
6044,2240.0,473.0
6045,2225.0,137.0
6046,2226.0,-117.0
6047,2229.0,-437.0
6048,2229.0,-865.0
6049,2230.0,-1323.0
6050,2225.0,-1681.0
6051,2227.0,-1821.0
6052,2031.0,-1660.0
6053,2078.0,-1165.0
6054,2227.0,-387.0
6055,2171.0,524.0
6056,1732.0,1368.0
6057,1335.0,1970.0
6058,1139.0,2243.0
6059,1111.0,2196.0
6060,1136.0,1913.0
6061,1139.0,1516.0
6062,1143.0,1111.0
6063,1153.0,749.0
6064,1156.0,447.0
6065,1138.0,238.0
6066,1124.0,199.0
6067,1117.0,401.0
6068,1115.0,837.0
6069,1124.0,1388.0
6070,1120.0,1848.0
6071,1124.0,1995.0
6072,-19.0,-1031.0
6073,-22.0,-1709.0
6074,-21.0,-1958.0
6075,-28.0,-1786.0
6076,-24.0,-1319.0
6077,-22.0,-720.0
6078,-23.0,-85.0
6079,1199.0,-1015.0
6080,1190.0,-2209.0
6081,1155.0,-2894.0
6082,1132.0,-2983.0
6083,1115.0,-2551.0
6084,1116.0,-1810.0
6085,1125.0,-1066.0
6086,1125.0,-612.0
6087,2058.0,1491.0
6088,1538.0,2118.0
6089,1193.0,2013.0
6090,1080.0,1185.0
6091,1075.0,-96.0
6092,1102.0,-1396.0
6093,1132.0,-2270.0
6094,1137.0,-2434.0
6095,1138.0,-1860.0
6096,1130.0,-747.0
6097,1109.0,598.0
6098,1106.0,1897.0
6099,540.0,2959.0
6100,-21.0,3654.0
6101,-23.0,2727.0
6102,-21.0,1474.0
6103,-24.0,-16.0
6104,-23.0,-1489.0
6105,431.0,-2624.0
6106,892.0,-3103.0
6107,1123.0,-2745.0
6108,1202.0,-1626.0
6109,1210.0,-68.0
6110,1194.0,1469.0
6111,1166.0,2556.0
6112,1145.0,2923.0
6113,1129.0,2503.0
6114,1135.0,1407.0
6115,1149.0,-122.0
6116,1127.0,-1769.0
6117,1126.0,-3216.0
6118,1146.0,-4195.0
6119,817.0,-4506.0
6120,468.0,-4060.0
6121,1151.0,-2921.0
6122,1770.0,-1312.0
6123,657.0,3407.0
6124,-25.0,3163.0
6125,-21.0,2493.0
6126,-22.0,1684.0
6127,-28.0,933.0
6128,-26.0,250.0
6129,-22.0,-494.0
6130,-21.0,-1407.0
6131,918.0,-2378.0
6132,2235.0,-3033.0
6133,2225.0,-2910.0
6134,2229.0,-1732.0
6135,2232.0,376.0
6136,2232.0,5850.0
6137,2234.0,5285.0
6138,1940.0,3246.0
6139,1428.0,161.0
6140,1666.0,-3238.0
6141,2224.0,-6164.0
6142,2228.0,-7996.0
6143,2223.0,-8400.0
6144,2226.0,-7351.0
6145,2231.0,-5102.0
6146,2228.0,-2098.0
6147,2230.0,1109.0
6148,2228.0,3949.0
6149,2240.0,5922.0
6150,2228.0,6696.0
6151,2228.0,6188.0
6152,2131.0,4601.0
6153,1630.0,2391.0
6154,1229.0,116.0
6155,1076.0,-1746.0
6156,1062.0,-2911.0
6157,1082.0,-3293.0
6158,1129.0,-1173.0
6159,1119.0,-188.0
6160,1123.0,632.0
6161,1128.0,1265.0
6162,1129.0,1776.0
6163,1134.0,2233.0
6164,1126.0,2607.0
6165,1132.0,2745.0
6166,1304.0,2454.0
6167,2229.0,1656.0
6168,2231.0,476.0
6169,2231.0,-786.0
6170,2227.0,-1797.0
6171,2143.0,-2328.0
6172,1642.0,-2311.0
6173,1252.0,-1821.0
6174,1071.0,-1052.0
6175,1051.0,-289.0
6176,1080.0,182.0
6177,1117.0,207.0
6178,1109.0,-180.0
6179,1104.0,-783.0
6180,1080.0,-928.0
6181,1050.0,237.0
6182,1033.0,1817.0
6183,973.0,3349.0
6184,-22.0,4336.0
6185,-27.0,4446.0
6186,-20.0,3611.0
6187,-22.0,2050.0
6188,-16.0,207.0
6189,288.0,-1418.0
6190,1054.0,-2474.0
6191,1232.0,-2852.0
6192,1140.0,-2606.0
6193,1088.0,-1850.0
6194,1116.0,-734.0
6195,1135.0,551.0
6196,1114.0,1781.0
6197,1070.0,2698.0
6198,1092.0,3026.0
6199,1103.0,2536.0
6200,1074.0,1198.0
6201,1070.0,-717.0
6202,2133.0,-4617.0
6203,1875.0,-4028.0
6204,1488.0,-2545.0
6205,1227.0,-624.0
6206,1177.0,1167.0
6207,1292.0,2395.0
6208,1493.0,2910.0
6209,1578.0,2790.0
6210,737.0,717.0
6211,857.0,220.0
6212,911.0,-22.0
6213,563.0,126.0
6214,511.0,157.0
6215,694.0,61.0
6216,890.0,-49.0
6217,995.0,-34.0
6218,1073.0,154.0
6219,1110.0,407.0
6220,1106.0,518.0
6221,1100.0,346.0
6222,1097.0,-72.0
6223,1124.0,-537.0
6224,1197.0,-816.0
6225,1055.0,-793.0
6226,-29.0,-542.0
6227,-25.0,-252.0
6228,-16.0,-108.0
6229,359.0,-195.0
6230,2226.0,-458.0
6231,2231.0,-734.0
6232,2234.0,-850.0
6233,2221.0,-713.0
6234,2229.0,1136.0
6235,2229.0,1991.0
6236,2048.0,2613.0
6237,1228.0,2636.0
6238,948.0,1779.0
6239,959.0,19.0
6240,1055.0,-2328.0
6241,1140.0,-4631.0
6242,1174.0,-6121.0
6243,1170.0,-6226.0
6244,1146.0,-4833.0
6245,1145.0,-2328.0
6246,1154.0,599.0
6247,1169.0,3234.0
6248,1158.0,5058.0
6249,1186.0,5834.0
6250,2116.0,5588.0
6251,2227.0,4534.0
6252,2233.0,2963.0
6253,2226.0,1138.0
6254,2232.0,-701.0
6255,2223.0,-2284.0
6256,2222.0,-3551.0
6257,2159.0,-3072.0
6258,1812.0,-2187.0
6259,1501.0,-1329.0
6260,1399.0,-832.0
6261,1405.0,-780.0
6262,1326.0,-994.0
6263,1191.0,-1153.0
6264,1172.0,-987.0
6265,1370.0,-420.0
6266,1656.0,418.0
6267,1149.0,2013.0
6268,414.0,2472.0
6269,197.0,2656.0
6270,262.0,2584.0
6271,263.0,2294.0
6272,307.0,1817.0
6273,70.0,1151.0
6274,259.0,283.0
6275,794.0,-707.0
6276,1410.0,-1587.0
6277,1575.0,-2034.0
6278,1510.0,-1806.0
6279,1395.0,-884.0
6280,1472.0,496.0
6281,1451.0,1931.0
6282,1368.0,2966.0
6283,1248.0,3244.0
6284,1184.0,2621.0
6285,1192.0,1222.0
6286,1305.0,-601.0
6287,2229.0,-2394.0
6288,2226.0,-3725.0
6289,2230.0,-2755.0
6290,2227.0,-1058.0
6291,2222.0,756.0
6292,2218.0,2294.0
6293,1804.0,3233.0
6294,1346.0,3358.0
6295,1128.0,2618.0
6296,1073.0,1186.0
6297,1097.0,-547.0
6298,1121.0,-2093.0
6299,1142.0,-3040.0
6300,1146.0,-3205.0
6301,1139.0,-2634.0
6302,1128.0,-1519.0
6303,1110.0,-121.0
6304,1113.0,1290.0
6305,950.0,2474.0
6306,488.0,3232.0
6307,-20.0,3435.0
6308,-23.0,3051.0
6309,-27.0,2162.0
6310,-28.0,938.0
6311,-28.0,-2332.0
6312,-22.0,-2548.0
6313,-26.0,-2124.0
6314,-22.0,-1129.0
6315,-25.0,207.0
6316,-23.0,1562.0
6317,-25.0,2623.0
6318,-21.0,3163.0
6319,-23.0,3080.0
6320,-23.0,2406.0
6321,-20.0,1307.0
6322,-19.0,67.0
6323,-18.0,-996.0
6324,-26.0,-1651.0
6325,-28.0,-1813.0
6326,-22.0,-1549.0
6327,-27.0,-1022.0
6328,-19.0,-433.0
6329,-24.0,55.0
6330,-24.0,372.0
6331,-18.0,532.0
6332,-22.0,585.0
6333,-23.0,564.0
6334,-24.0,473.0
6335,-22.0,320.0
6336,-25.0,131.0
6337,-22.0,-53.0
6338,-23.0,-200.0
6339,-18.0,-297.0
6340,-20.0,-345.0
6341,-22.0,-359.0
6342,-19.0,-353.0
6343,-25.0,-336.0
6344,-23.0,-317.0
6345,-18.0,-300.0
6346,-25.0,-276.0
6347,-23.0,-278.0
6348,-22.0,-283.0
6349,-24.0,-287.0
6350,-20.0,-288.0
6351,-23.0,-285.0
6352,-16.0,-279.0
6353,-26.0,-271.0
6354,-26.0,-262.0
6355,-20.0,-253.0
6356,-23.0,-244.0
6357,136.0,-236.0
6358,658.0,-230.0
6359,1194.0,-215.0
6360,1157.0,-211.0
6361,1130.0,-198.0
6362,1131.0,-166.0
6363,1095.0,-113.0
6364,893.0,-83.0
6365,572.0,-161.0
6366,569.0,-438.0
6367,927.0,-933.0
6368,954.0,-1562.0
6369,611.0,-2138.0
6370,183.0,-2442.0
6371,175.0,-2294.0
6372,1201.0,-1631.0
6373,2231.0,-530.0
6374,2232.0,782.0
6375,2227.0,1984.0
6376,2232.0,2764.0
6377,2234.0,2959.0
6378,2230.0,2627.0
6379,2231.0,1991.0
6380,2231.0,1271.0
6381,2235.0,-1231.0
6382,2231.0,-2354.0
6383,2232.0,-3484.0
6384,2238.0,-4301.0
6385,2229.0,-4417.0
6386,2234.0,-3587.0
6387,2227.0,-1901.0
6388,2229.0,211.0
6389,2233.0,2176.0
6390,2226.0,3524.0
6391,2230.0,4022.0
6392,2231.0,3686.0
6393,2231.0,2761.0
6394,2227.0,1638.0
6395,2225.0,687.0
6396,2236.0,78.0
6397,2228.0,-239.0
6398,2231.0,-400.0
6399,2230.0,-478.0
6400,2229.0,-458.0
6401,2227.0,-314.0
6402,2221.0,-70.0
6403,2227.0,589.0
6404,2003.0,653.0
6405,1505.0,649.0
6406,1194.0,605.0
6407,1083.0,545.0
6408,1079.0,487.0
6409,1117.0,439.0
6410,1131.0,398.0
6411,1134.0,349.0
6412,1168.0,292.0
6413,1502.0,269.0
6414,2160.0,364.0
6415,2231.0,649.0
6416,2228.0,1129.0
6417,2235.0,1704.0
6418,2230.0,2193.0
6419,2230.0,2392.0
6420,2231.0,2156.0
6421,2227.0,1447.0
6422,2228.0,339.0
6423,2230.0,-988.0
6424,2231.0,-2293.0
6425,2233.0,-3911.0
6426,2232.0,-3330.0
6427,2226.0,-2258.0
6428,2232.0,-893.0
6429,2232.0,494.0
6430,2226.0,1629.0
6431,2231.0,2313.0
6432,2232.0,2469.0
6433,2181.0,2148.0
6434,1696.0,1497.0
6435,1282.0,729.0
6436,1096.0,48.0
6437,1074.0,-425.0
6438,1092.0,-683.0
6439,1098.0,-788.0
6440,1105.0,-809.0
6441,1104.0,-778.0
6442,1094.0,-678.0
6443,1122.0,-457.0
6444,1106.0,-58.0
6445,118.0,520.0
6446,-25.0,2197.0
6447,-29.0,2132.0
6448,-22.0,1556.0
6449,-18.0,540.0
6450,-20.0,-682.0
6451,-26.0,-1753.0
6452,-22.0,-2315.0
6453,-20.0,-2172.0
6454,-24.0,-1374.0
6455,179.0,-194.0
6456,720.0,964.0
6457,1035.0,1702.0
6458,1147.0,1767.0
6459,1168.0,1148.0
6460,1146.0,72.0
6461,1144.0,-1091.0
6462,1127.0,-2000.0
6463,1121.0,-2472.0
6464,1123.0,-2526.0
6465,1242.0,-2336.0
6466,2188.0,-2139.0
6467,2232.0,-2120.0
6468,2231.0,-2639.0
6469,2227.0,-2294.0
6470,2230.0,-1485.0
6471,2227.0,-371.0
6472,2229.0,704.0
6473,2227.0,1361.0
6474,2231.0,1365.0
6475,2229.0,722.0
6476,2226.0,-327.0
6477,2225.0,-1398.0
6478,2234.0,-2089.0
6479,2230.0,-2129.0
6480,2232.0,-1499.0
6481,2236.0,-437.0
6482,2227.0,678.0
6483,2230.0,1518.0
6484,2230.0,1931.0
6485,2230.0,1928.0
6486,2232.0,1621.0
6487,2229.0,1171.0
6488,2228.0,737.0
6489,2227.0,114.0
6490,2232.0,46.0
6491,2223.0,28.0
6492,2229.0,80.0
6493,2230.0,200.0
6494,2227.0,352.0
6495,2232.0,490.0
6496,2232.0,582.0
6497,2236.0,620.0
6498,2236.0,612.0
6499,2231.0,575.0
6500,2230.0,527.0
6501,2229.0,479.0
6502,2229.0,437.0
6503,2219.0,404.0
6504,2237.0,376.0
6505,2232.0,351.0
6506,2222.0,327.0
6507,2223.0,304.0
6508,2232.0,283.0
6509,203.0,40.0
6510,1022.0,19.0
6511,1775.0,95.0
6512,1890.0,352.0
6513,1848.0,803.0
6514,1983.0,1356.0
6515,2230.0,1855.0
6516,2232.0,2170.0
6517,2233.0,2224.0
6518,2223.0,1951.0
6519,2227.0,1281.0
6520,2229.0,193.0
6521,2227.0,-1223.0
6522,2224.0,-2783.0
6523,2231.0,-5291.0
6524,2225.0,-5634.0
6525,2229.0,-5071.0
6526,2226.0,-3658.0
6527,2221.0,-1722.0
6528,2088.0,282.0
6529,2064.0,1952.0
6530,2156.0,3021.0
6531,1836.0,3379.0
6532,1343.0,3095.0
6533,1083.0,2407.0
6534,1099.0,1607.0
6535,1100.0,888.0
6536,440.0,299.0
6537,-21.0,-172.0
6538,-25.0,-518.0
6539,-26.0,-689.0
6540,-25.0,-627.0
6541,-14.0,-313.0
6542,-20.0,199.0
6543,-27.0,797.0
6544,-17.0,1365.0
6545,-21.0,1824.0
6546,-24.0,2121.0
6547,-18.0,2202.0
6548,-24.0,2019.0
6549,-23.0,1567.0
6550,-19.0,885.0
6551,-23.0,33.0
6552,-24.0,-921.0
6553,-25.0,-1866.0
6554,-23.0,-2624.0
6555,253.0,-3029.0
6556,2221.0,-3017.0
6557,2223.0,-1998.0
6558,2230.0,-1237.0
6559,2232.0,-509.0
6560,2232.0,59.0
6561,2227.0,437.0
6562,2231.0,652.0
6563,2230.0,655.0
6564,2232.0,282.0
6565,2238.0,-592.0
6566,2226.0,-1893.0
6567,2117.0,-3310.0
6568,1617.0,-4368.0
6569,1064.0,-1845.0
6570,1091.0,605.0
6571,1118.0,2923.0
6572,1133.0,4489.0
6573,1125.0,5013.0
6574,1122.0,4586.0
6575,1355.0,3575.0
6576,2097.0,2468.0
6577,2229.0,1676.0
6578,2233.0,1347.0
6579,2071.0,1321.0
6580,1547.0,1264.0
6581,1262.0,-1611.0
6582,1552.0,-2421.0
6583,2231.0,-3056.0
6584,2228.0,-3467.0
6585,2186.0,-3562.0
6586,1336.0,-3213.0
6587,479.0,-2333.0
6588,-18.0,-953.0
6589,-23.0,753.0
6590,-23.0,2454.0
6591,-19.0,3685.0
6592,-20.0,4006.0
6593,-24.0,3236.0
6594,-24.0,1610.0
6595,-18.0,-246.0
6596,-18.0,-1562.0
6597,-22.0,-1765.0
6598,-22.0,-735.0
6599,-22.0,1132.0
6600,-22.0,3077.0
6601,-22.0,4269.0
6602,-22.0,4189.0
6603,-25.0,2844.0
6604,-24.0,717.0
6605,-26.0,-1498.0
6606,-20.0,-3188.0
6607,-19.0,-4009.0
6608,-25.0,-3932.0
6609,-20.0,-3191.0
6610,-20.0,-2152.0
6611,-19.0,-1151.0
6612,-20.0,-360.0
6613,-25.0,218.0
6614,-24.0,976.0
6615,-22.0,1155.0
6616,-23.0,1147.0
6617,-29.0,963.0
6618,-25.0,672.0
6619,-23.0,367.0
6620,-24.0,120.0
6621,-24.0,-38.0
6622,-24.0,-110.0
6623,-22.0,-120.0
6624,-25.0,-96.0
6625,-24.0,-61.0
6626,-20.0,-31.0
6627,-22.0,-12.0
6628,-20.0,-6.0
6629,-24.0,-10.0
6630,-22.0,-19.0
6631,-19.0,-31.0
6632,-24.0,-42.0
6633,-23.0,-51.0
6634,-23.0,-57.0
6635,-20.0,-60.0
6636,-27.0,-61.0
6637,-23.0,-58.0
6638,-24.0,-56.0
6639,-20.0,-53.0
6640,-20.0,-51.0
6641,-21.0,-48.0
6642,-27.0,-45.0
6643,-18.0,-42.0
6644,-26.0,-40.0
6645,-24.0,-38.0
6646,-21.0,-37.0
6647,-23.0,-37.0
6648,-22.0,-38.0
6649,-25.0,-39.0
6650,-19.0,-39.0
6651,-21.0,-38.0
6652,-22.0,-36.0
6653,-24.0,-32.0
6654,-19.0,-27.0
6655,-16.0,-20.0
6656,-28.0,-14.0
6657,-20.0,-10.0
6658,-20.0,-7.0
6659,-25.0,-7.0
6660,-26.0,-8.0
6661,-24.0,-8.0
6662,-20.0,-8.0
6663,-23.0,-6.0
6664,-19.0,-4.0
6665,-17.0,0.0
6666,-23.0,3.0
6667,-24.0,7.0
6668,-25.0,11.0
6669,-20.0,15.0
6670,-27.0,20.0
6671,-19.0,23.0
6672,-24.0,25.0
6673,-27.0,23.0
6674,-25.0,18.0
6675,-24.0,13.0
6676,-18.0,9.0
6677,-26.0,8.0
6678,-33.0,12.0
6679,-19.0,19.0
6680,-23.0,26.0
6681,-20.0,32.0
6682,-21.0,35.0
6683,-29.0,35.0
6684,-24.0,32.0
6685,-26.0,27.0
6686,-24.0,24.0
6687,-25.0,22.0
6688,-23.0,22.0
6689,-21.0,22.0
6690,-23.0,21.0
6691,-20.0,19.0
6692,-25.0,13.0
6693,-20.0,18.0
6694,-22.0,22.0
6695,-26.0,23.0
6696,-29.0,21.0
6697,-22.0,18.0
6698,-22.0,14.0
6699,-20.0,13.0
6700,-20.0,14.0
6701,-25.0,16.0
6702,-16.0,16.0
6703,-23.0,13.0
6704,-27.0,9.0
6705,-23.0,6.0
6706,-20.0,3.0
6707,-21.0,2.0
6708,-18.0,1.0
6709,-17.0,0.0
6710,-22.0,-2.0
6711,-21.0,-7.0
6712,-25.0,-11.0
6713,-21.0,-14.0
6714,-25.0,-12.0
6715,-19.0,-8.0
6716,-24.0,-3.0
6717,-25.0,-1.0
6718,-22.0,-3.0
6719,-21.0,-9.0
6720,-19.0,-17.0
6721,-21.0,-22.0
6722,-25.0,-24.0
6723,-19.0,-21.0
6724,-33.0,-16.0
6725,-25.0,-12.0
6726,-22.0,-12.0
6727,-18.0,-15.0
6728,-23.0,-21.0
6729,-29.0,-28.0
6730,-27.0,-36.0
6731,-22.0,-40.0
6732,-21.0,-42.0
6733,-24.0,-40.0
6734,-20.0,-36.0
6735,-24.0,-31.0
6736,-16.0,-29.0
6737,-20.0,-29.0
6738,-19.0,-31.0
6739,-18.0,-36.0
6740,-22.0,-40.0
6741,-24.0,-44.0
6742,-24.0,-46.0
6743,-25.0,-47.0
6744,-21.0,-47.0
6745,-23.0,-48.0
6746,-23.0,-50.0
6747,-14.0,-53.0
6748,-24.0,-54.0
6749,-20.0,-53.0
6750,-22.0,-49.0
6751,-27.0,-42.0
6752,-14.0,-33.0
6753,-24.0,-27.0
6754,-26.0,-24.0
