sample,raw,filtered
0,2279.0,0.0
1,2283.0,0.0
2,2281.0,0.0
3,2278.0,0.0
4,2285.0,0.0
5,2285.0,0.0
6,2283.0,-8.0
7,2290.0,-30.0
8,2289.0,-58.0
9,2283.0,-58.0
10,2283.0,20.0
11,2286.0,222.0
12,2284.0,568.0
13,2287.0,125.0
14,2282.0,18.0
15,2287.0,-81.0
16,2284.0,-176.0
17,2287.0,-266.0
18,2072.0,-349.0
19,2290.0,-426.0
20,2284.0,-499.0
21,2283.0,-568.0
22,2288.0,-632.0
23,983.0,-690.0
24,840.0,-743.0
25,2286.0,-792.0
26,2292.0,-838.0
27,2282.0,-883.0
28,957.0,-927.0
29,112.0,-967.0
30,2279.0,-999.0
31,2283.0,-1029.0
32,2271.0,-1074.0
33,-33.0,-1156.0
34,2282.0,-1551.0
35,2288.0,-1670.0
36,942.0,-1769.0
37,2285.0,-1837.0
38,2288.0,-1854.0
39,2286.0,-1825.0
40,2285.0,-1781.0
41,2284.0,-77.0
42,2288.0,-9.0
43,-20.0,-11.0
44,2283.0,-51.0
45,2291.0,-98.0
46,2285.0,-141.0
47,-25.0,-170.0
48,-22.0,-186.0
49,501.0,-192.0
50,2284.0,-193.0
51,978.0,-199.0
52,-21.0,-230.0
53,-25.0,-298.0
54,758.0,-398.0
55,2283.0,-519.0
56,2288.0,-658.0
57,1455.0,-822.0
58,776.0,-1011.0
59,2283.0,-1206.0
60,2292.0,-1384.0
61,2283.0,-1541.0
62,2288.0,-1674.0
63,2281.0,-1768.0
64,2288.0,-1782.0
65,2289.0,-791.0
66,2289.0,-386.0
67,2288.0,21.0
68,2288.0,397.0
69,2288.0,712.0
70,2289.0,951.0
71,2282.0,1116.0
72,2285.0,1215.0
73,2292.0,1259.0
74,2290.0,1261.0
75,2288.0,1226.0
76,2285.0,1158.0
77,2287.0,1066.0
78,2289.0,830.0
79,2290.0,782.0
80,2288.0,738.0
81,2278.0,698.0
82,2281.0,669.0
83,2290.0,650.0
84,1207.0,630.0
85,-25.0,603.0
86,-26.0,-472.0
87,-22.0,-962.0
88,-24.0,-1469.0
89,-16.0,-1916.0
90,-27.0,-2224.0
91,-23.0,-2340.0
92,-22.0,-2265.0
93,-23.0,-2043.0
94,-20.0,-1741.0
95,-23.0,-1415.0
96,-22.0,-1103.0
97,-24.0,-830.0
98,-23.0,-606.0
99,-21.0,-429.0
100,-20.0,-68.0
101,-26.0,19.0
102,-24.0,95.0
103,-16.0,162.0
104,-22.0,226.0
105,-25.0,289.0
106,-25.0,348.0
107,-27.0,400.0
108,-27.0,448.0
109,-28.0,496.0
110,-21.0,544.0
111,-22.0,587.0
112,-27.0,625.0
113,-20.0,659.0
114,-21.0,693.0
115,-22.0,726.0
116,-33.0,755.0
117,-20.0,778.0
118,-24.0,798.0
119,-22.0,817.0
120,-24.0,889.0
121,-26.0,882.0
122,-25.0,843.0
123,-21.0,829.0
124,-21.0,817.0
125,-25.0,804.0
126,-17.0,789.0
127,-20.0,772.0
128,-23.0,757.0
129,-24.0,743.0
130,-21.0,727.0
131,-30.0,709.0
132,-20.0,689.0
133,-25.0,670.0
134,-20.0,652.0
135,-26.0,633.0
136,-24.0,613.0
137,-21.0,592.0
138,-21.0,573.0
139,-22.0,554.0
140,-24.0,535.0
141,-23.0,514.0
142,-21.0,492.0
143,-20.0,471.0
144,-20.0,451.0
145,-23.0,431.0
146,-23.0,410.0
147,-23.0,388.0
148,-25.0,368.0
149,-12.0,350.0
150,-26.0,331.0
151,-25.0,312.0
152,-22.0,291.0
153,-16.0,90.0
154,-24.0,75.0
155,-20.0,59.0
156,-28.0,42.0
157,-22.0,26.0
158,-25.0,11.0
159,-21.0,-3.0
160,-21.0,-140.0
161,-23.0,-151.0
162,-23.0,-162.0
163,-22.0,-172.0
164,-16.0,-181.0
165,-27.0,-189.0
166,-17.0,-198.0
167,-25.0,-207.0
168,-19.0,-215.0
169,-25.0,-222.0
170,-23.0,-229.0
171,-24.0,-236.0
172,-19.0,-243.0
173,-24.0,-249.0
174,-23.0,-254.0
175,-21.0,-267.0
176,-29.0,-271.0
177,-22.0,-275.0
178,-20.0,-279.0
179,-27.0,-283.0
180,-22.0,-287.0
181,-20.0,-291.0
182,-24.0,-294.0
183,-19.0,-296.0
184,-16.0,-298.0
185,-25.0,-299.0
186,-20.0,-300.0
187,-20.0,-301.0
188,-23.0,-302.0
189,-20.0,-303.0
190,-23.0,-305.0
191,-21.0,-306.0
192,-21.0,-306.0
193,-18.0,-306.0
194,-24.0,-306.0
195,-25.0,-305.0
196,-22.0,-303.0
197,-25.0,-301.0
198,-29.0,-299.0
199,-20.0,-298.0
200,-22.0,-297.0
201,-18.0,-295.0
202,-20.0,-294.0
203,-25.0,-292.0
204,-22.0,-290.0
205,-23.0,-288.0
206,-21.0,-286.0
207,-23.0,-284.0
208,-22.0,-281.0
209,-22.0,-279.0
210,-26.0,-277.0
211,-21.0,-270.0
212,-31.0,-266.0
213,-24.0,-262.0
214,-20.0,-257.0
215,-26.0,-253.0
216,-19.0,-249.0
217,-21.0,-245.0
218,-20.0,-242.0
219,-20.0,-238.0
220,-20.0,-235.0
221,-25.0,-231.0
222,-27.0,-227.0
223,-18.0,-206.0
224,-23.0,-201.0
225,-16.0,-196.0
226,-23.0,-190.0
227,-21.0,-185.0
228,-25.0,-180.0
229,-21.0,-176.0
230,-25.0,-172.0
231,-24.0,-169.0
232,-22.0,-165.0
233,-25.0,-160.0
234,-21.0,-155.0
235,-25.0,-150.0
236,-19.0,-145.0
237,-24.0,-139.0
238,-22.0,-135.0
239,-24.0,-131.0
240,-24.0,-128.0
241,-20.0,-125.0
242,-18.0,-122.0
243,-20.0,-118.0
244,-22.0,-115.0
245,-25.0,-2.0
246,-24.0,0.0
247,-16.0,2.0
248,-20.0,4.0
249,-21.0,6.0
250,-27.0,8.0
251,-26.0,10.0
252,-23.0,11.0
253,-19.0,13.0
254,-22.0,15.0
255,-28.0,17.0
256,-23.0,20.0
257,-17.0,22.0
258,-21.0,24.0
259,-25.0,26.0
260,-24.0,28.0
261,-29.0,29.0
262,-19.0,31.0
263,-24.0,32.0
264,-21.0,32.0
265,-23.0,33.0
266,-27.0,34.0
267,-27.0,36.0
268,-20.0,37.0
269,-25.0,39.0
270,-20.0,41.0
271,-23.0,42.0
272,-23.0,43.0
273,-25.0,44.0
274,-22.0,45.0
275,-19.0,45.0
276,-25.0,46.0
277,-21.0,47.0
278,-25.0,47.0
279,-27.0,48.0
280,-22.0,49.0
281,-22.0,50.0
282,-25.0,51.0
283,-17.0,54.0
284,-22.0,54.0
285,-23.0,55.0
286,-16.0,55.0
287,-25.0,55.0
288,-16.0,55.0
289,-22.0,55.0
290,-24.0,55.0
291,-21.0,54.0
292,-25.0,55.0
293,-24.0,55.0
294,-21.0,56.0
295,-24.0,57.0
296,-25.0,58.0
297,-15.0,59.0
298,-28.0,59.0
299,-29.0,59.0
300,-21.0,59.0
301,-20.0,58.0
302,-25.0,50.0
303,-26.0,51.0
304,-25.0,51.0
305,-24.0,51.0
306,-25.0,50.0
307,-21.0,50.0
308,-17.0,49.0
309,-25.0,48.0
310,-21.0,48.0
311,-23.0,48.0
312,-20.0,48.0
313,-22.0,47.0
314,-27.0,46.0
315,-20.0,45.0
316,-22.0,43.0
317,-19.0,41.0
318,-18.0,39.0
319,-25.0,39.0
320,-21.0,38.0
321,-23.0,39.0
322,-14.0,39.0
323,-20.0,39.0
324,-21.0,39.0
325,-29.0,39.0
326,-25.0,38.0
327,-23.0,37.0
328,-22.0,36.0
329,-16.0,35.0
330,-20.0,35.0
331,-23.0,35.0
332,-27.0,34.0
333,-31.0,34.0
334,-25.0,33.0
335,-19.0,32.0
336,-23.0,30.0
337,-22.0,28.0
338,-25.0,27.0
339,-16.0,25.0
340,-25.0,25.0
341,-21.0,24.0
342,-20.0,24.0
343,-23.0,24.0
344,-24.0,24.0
345,-21.0,23.0
346,-21.0,22.0
347,-25.0,21.0
348,-20.0,20.0
349,-22.0,20.0
350,-25.0,16.0
351,-22.0,15.0
352,-29.0,15.0
353,-19.0,15.0
354,-25.0,15.0
355,-25.0,15.0
356,-23.0,15.0
357,-25.0,14.0
358,-20.0,12.0
359,-23.0,11.0
360,-25.0,9.0
361,-23.0,7.0
362,-21.0,6.0
363,-23.0,6.0
364,-23.0,6.0
365,-25.0,6.0
366,-20.0,6.0
367,-20.0,6.0
368,-29.0,5.0
369,-27.0,5.0
370,-24.0,5.0
371,-19.0,5.0
372,-20.0,5.0
373,-24.0,5.0
374,-20.0,5.0
375,-19.0,5.0
376,-19.0,5.0
377,-25.0,5.0
378,-21.0,4.0
379,-22.0,3.0
380,-16.0,3.0
381,-20.0,2.0
382,-20.0,1.0
383,-20.0,1.0
384,-20.0,1.0
385,-20.0,2.0
386,-22.0,2.0
387,-22.0,3.0
388,-21.0,3.0
389,-24.0,3.0
390,-23.0,3.0
391,-21.0,3.0
392,-16.0,2.0
393,-26.0,2.0
394,-24.0,2.0
395,-24.0,1.0
396,-22.0,1.0
397,-20.0,0.0
398,-23.0,0.0
399,-20.0,0.0
400,-33.0,-1.0
401,-26.0,-2.0
402,-22.0,-3.0
403,-24.0,-3.0
404,-24.0,-4.0
405,-23.0,-4.0
406,-20.0,-4.0
407,-20.0,-4.0
408,-22.0,-4.0
409,-18.0,-4.0
410,-23.0,-4.0
411,-23.0,-5.0
412,-25.0,-5.0
413,-26.0,-6.0
414,-21.0,-6.0
415,-21.0,-6.0
416,-22.0,-6.0
417,-18.0,-5.0
418,-22.0,-4.0
419,-22.0,-3.0
420,-21.0,-2.0
421,-22.0,-1.0
422,-25.0,-1.0
423,101.0,-1.0
424,416.0,-2.0
425,1025.0,-3.0
426,-25.0,-4.0
427,-20.0,-4.0
428,1294.0,-5.0
429,1603.0,-5.0
430,1759.0,-6.0
431,-20.0,-11.0
432,-19.0,-14.0
433,27.0,-5.0
434,-20.0,26.0
435,-23.0,79.0
436,-20.0,149.0
437,-20.0,235.0
438,-19.0,728.0
439,-22.0,729.0
440,-25.0,603.0
441,-21.0,340.0
442,-23.0,-41.0
443,-16.0,-492.0
444,-22.0,-931.0
445,-25.0,-1274.0
446,-26.0,-1464.0
447,-27.0,-1489.0
448,-25.0,-1375.0
449,-25.0,-1174.0
450,-22.0,-941.0
451,-26.0,-715.0
452,-23.0,-514.0
453,-21.0,-337.0
454,-22.0,-180.0
455,-20.0,-36.0
456,-24.0,95.0
457,-28.0,215.0
458,-20.0,320.0
459,-23.0,401.0
460,-20.0,206.0
461,-23.0,196.0
462,-16.0,184.0
463,-25.0,173.0
464,-24.0,162.0
465,-26.0,152.0
466,-20.0,143.0
467,-26.0,132.0
468,-26.0,121.0
469,-17.0,111.0
470,-20.0,104.0
471,-21.0,98.0
472,-27.0,91.0
473,-25.0,84.0
474,111.0,78.0
475,656.0,73.0
476,1029.0,67.0
477,1185.0,60.0
478,1193.0,53.0
479,1164.0,47.0
480,1150.0,41.0
481,1148.0,35.0
482,1172.0,23.0
483,1185.0,10.0
484,497.0,10.0
485,-23.0,145.0
486,-27.0,317.0
487,-20.0,559.0
488,-23.0,843.0
489,-25.0,1126.0
490,-25.0,1358.0
491,-27.0,1489.0
492,-20.0,1482.0
493,469.0,1317.0
494,989.0,999.0
495,908.0,554.0
496,1049.0,29.0
497,1231.0,-517.0
498,1340.0,-1028.0
499,1241.0,-1448.0
500,989.0,-1741.0
501,911.0,-1886.0
502,929.0,-1880.0
503,870.0,-1735.0
504,817.0,-1469.0
505,53.0,-1109.0
506,-16.0,-680.0
507,-26.0,-208.0
508,-25.0,267.0
509,-20.0,701.0
510,-21.0,1039.0
511,-27.0,1241.0
512,-25.0,1292.0
513,-29.0,1199.0
514,-27.0,980.0
515,-20.0,659.0
516,-20.0,269.0
517,-19.0,-151.0
518,-19.0,-565.0
519,-19.0,-935.0
520,-27.0,-1231.0
521,-26.0,-1430.0
522,289.0,-1516.0
523,811.0,-1490.0
524,1119.0,-1369.0
525,1221.0,-1182.0
526,1214.0,-962.0
527,1208.0,-739.0
528,1183.0,-531.0
529,2286.0,78.0
530,2284.0,238.0
531,2285.0,442.0
532,2275.0,696.0
533,2279.0,985.0
534,2287.0,1271.0
535,2281.0,1508.0
536,2283.0,1652.0
537,2287.0,1687.0
538,2290.0,1628.0
539,2282.0,1518.0
540,2286.0,1411.0
541,2289.0,1343.0
542,2287.0,1327.0
543,2283.0,1340.0
544,2277.0,1340.0
545,2283.0,1279.0
546,2282.0,1127.0
547,2279.0,884.0
548,2279.0,577.0
549,2283.0,249.0
550,2280.0,-55.0
551,2296.0,-309.0
552,2286.0,-499.0
553,2284.0,-632.0
554,2282.0,-723.0
555,2285.0,-788.0
556,2288.0,-841.0
557,2275.0,-885.0
558,2286.0,-920.0
559,2280.0,-943.0
560,2287.0,-948.0
561,2279.0,-934.0
562,2281.0,-766.0
563,2283.0,-724.0
564,2285.0,-686.0
565,2288.0,-653.0
566,2288.0,-624.0
567,2279.0,-598.0
568,2288.0,-573.0
569,2288.0,-548.0
570,2284.0,-523.0
571,2288.0,-499.0
572,2280.0,-476.0
573,2079.0,-453.0
574,1576.0,-430.0
575,1241.0,-408.0
576,1130.0,-387.0
577,1119.0,-367.0
578,1147.0,-347.0
579,1147.0,-327.0
580,1160.0,-305.0
581,1108.0,-281.0
582,1262.0,-259.0
583,1663.0,-254.0
584,1825.0,-287.0
585,1496.0,-379.0
586,897.0,-539.0
587,425.0,-756.0
588,365.0,-1002.0
589,367.0,-1233.0
590,-16.0,-1405.0
591,-26.0,-1476.0
592,-19.0,-1419.0
593,-21.0,-1229.0
594,-20.0,-935.0
595,-20.0,-52.0
596,-16.0,33.0
597,-24.0,-32.0
598,-22.0,-232.0
599,-23.0,-514.0
600,-27.0,-805.0
601,-23.0,-1031.0
602,-24.0,662.0
603,-24.0,752.0
604,-20.0,824.0
605,-33.0,904.0
606,36.0,914.0
607,736.0,910.0
608,2158.0,896.0
609,2288.0,877.0
610,2279.0,858.0
611,2280.0,841.0
612,2286.0,825.0
613,2285.0,807.0
614,2290.0,697.0
615,2289.0,504.0
616,2287.0,323.0
617,2285.0,151.0
618,2284.0,-10.0
619,2283.0,-152.0
620,2288.0,-265.0
621,2285.0,-341.0
622,2286.0,-381.0
623,2283.0,-394.0
624,2285.0,-392.0
625,2288.0,-384.0
626,2283.0,-375.0
627,2291.0,-368.0
628,2280.0,-366.0
629,2162.0,-369.0
630,1863.0,-375.0
631,1638.0,-382.0
632,1180.0,-389.0
633,619.0,-396.0
634,401.0,-402.0
635,699.0,-408.0
636,1024.0,-410.0
637,872.0,-408.0
638,395.0,-404.0
639,683.0,-488.0
640,494.0,-618.0
641,-7.0,-836.0
642,-21.0,-1134.0
643,-25.0,-1475.0
644,-24.0,-1802.0
645,-24.0,-2060.0
646,-14.0,-2207.0
647,-29.0,-2223.0
648,-28.0,-2113.0
649,-22.0,-1909.0
650,-21.0,-1667.0
651,-20.0,-1441.0
652,-24.0,-1266.0
653,-18.0,-1151.0
654,-23.0,-1080.0
655,-25.0,-1033.0
656,-22.0,-983.0
657,-30.0,-908.0
658,-23.0,-795.0
659,-20.0,465.0
660,-20.0,495.0
661,-23.0,516.0
662,-20.0,529.0
663,-27.0,535.0
664,-26.0,536.0
665,-21.0,535.0
666,-21.0,532.0
667,-22.0,527.0
668,-16.0,524.0
669,-20.0,523.0
670,-25.0,523.0
671,-23.0,524.0
672,-21.0,523.0
673,-18.0,522.0
674,-25.0,511.0
675,-23.0,505.0
676,-29.0,500.0
677,-25.0,495.0
678,-20.0,491.0
679,-21.0,486.0
680,-19.0,481.0
681,-26.0,474.0
682,-18.0,468.0
683,-23.0,460.0
684,-18.0,452.0
685,292.0,443.0
686,963.0,433.0
687,1168.0,424.0
688,1124.0,416.0
689,1341.0,407.0
690,1857.0,399.0
691,2031.0,389.0
692,1560.0,376.0
693,931.0,358.0
694,843.0,344.0
695,1287.0,351.0
696,1649.0,404.0
697,1516.0,522.0
698,1154.0,715.0
699,1147.0,982.0
700,1520.0,1303.0
701,1865.0,1634.0
702,1789.0,1909.0
703,1454.0,2059.0
704,1429.0,2044.0
705,2041.0,1215.0
706,1679.0,854.0
707,1886.0,551.0
708,2282.0,348.0
709,2285.0,251.0
710,2286.0,234.0
711,2288.0,253.0
712,2277.0,272.0
713,2281.0,277.0
714,2286.0,268.0
715,2286.0,247.0
716,2281.0,221.0
717,2282.0,200.0
718,2281.0,194.0
719,2281.0,208.0
720,2287.0,238.0
721,2286.0,271.0
722,2283.0,295.0
723,2278.0,298.0
724,2288.0,272.0
725,2284.0,214.0
726,2284.0,128.0
727,2285.0,21.0
728,2279.0,-97.0
729,2281.0,-415.0
730,1901.0,-485.0
731,1624.0,-541.0
732,1563.0,-589.0
733,1278.0,-631.0
734,1440.0,-665.0
735,2058.0,-695.0
736,2285.0,-721.0
737,2283.0,-742.0
738,2277.0,-757.0
739,2276.0,-770.0
740,2276.0,-795.0
741,2253.0,-855.0
742,2288.0,-967.0
743,2277.0,-1129.0
744,1951.0,-1315.0
745,1677.0,-1479.0
746,1948.0,-1571.0
747,2284.0,-1551.0
748,2182.0,-1404.0
749,714.0,-1149.0
750,-23.0,-833.0
751,-24.0,-148.0
752,-28.0,-236.0
753,-27.0,-374.0
754,-21.0,-515.0
755,-23.0,-644.0
756,-20.0,-781.0
757,-22.0,-966.0
758,-25.0,-1234.0
759,-20.0,-1595.0
760,-21.0,-2024.0
761,-21.0,-690.0
762,-21.0,-548.0
763,-18.0,-413.0
764,-27.0,-279.0
765,-22.0,-142.0
766,-24.0,-13.0
767,-25.0,98.0
768,-21.0,183.0
769,-27.0,243.0
770,-26.0,284.0
771,-19.0,315.0
772,600.0,340.0
773,1932.0,360.0
774,2283.0,381.0
775,2284.0,403.0
776,2278.0,475.0
777,2284.0,485.0
778,2275.0,487.0
779,2284.0,495.0
780,2289.0,548.0
781,2288.0,695.0
782,2290.0,974.0
783,2286.0,1390.0
784,2278.0,1907.0
785,2287.0,2448.0
786,2282.0,2920.0
787,2279.0,3235.0
788,2283.0,3335.0
789,2281.0,3216.0
790,2283.0,2925.0
791,2285.0,2537.0
792,2284.0,2132.0
793,2290.0,1770.0
794,2292.0,1474.0
795,2285.0,1241.0
796,2285.0,1048.0
797,2286.0,876.0
798,2279.0,710.0
799,2284.0,545.0
800,2286.0,383.0
801,2288.0,232.0
802,2283.0,105.0
803,2288.0,9.0
804,2285.0,-53.0
805,2283.0,-89.0
806,2286.0,-111.0
807,2289.0,-127.0
808,2288.0,-141.0
809,2284.0,-246.0
810,2286.0,-261.0
811,2284.0,-276.0
812,2283.0,-291.0
813,2278.0,-305.0
814,2282.0,-316.0
815,2286.0,-326.0
816,2287.0,-337.0
817,2284.0,-348.0
818,2282.0,-358.0
819,2279.0,-366.0
820,2287.0,-374.0
821,2286.0,-382.0
822,2288.0,-390.0
823,2281.0,-397.0
824,2279.0,-402.0
825,2290.0,-405.0
826,2282.0,-408.0
827,2288.0,-411.0
828,2281.0,-412.0
829,2279.0,-411.0
830,2281.0,-409.0
831,2287.0,-408.0
832,2284.0,-407.0
833,2279.0,-405.0
834,2284.0,-402.0
835,2281.0,-398.0
836,2277.0,-395.0
837,2283.0,-392.0
838,2288.0,-388.0
839,2282.0,-383.0
840,2282.0,-378.0
841,2279.0,-373.0
842,2281.0,-368.0
843,2281.0,-363.0
844,2274.0,-357.0
845,2281.0,-350.0
846,2283.0,-343.0
847,2277.0,-337.0
848,2288.0,-330.0
849,2283.0,-322.0
850,2282.0,-313.0
851,2284.0,-305.0
852,2284.0,-251.0
853,2288.0,-242.0
854,2290.0,-231.0
855,2278.0,-221.0
856,2283.0,-211.0
857,2287.0,-201.0
858,2280.0,-192.0
859,2184.0,-183.0
860,1883.0,-175.0
861,2037.0,-168.0
862,2208.0,-160.0
863,1475.0,-151.0
864,174.0,-141.0
865,-28.0,-132.0
866,20.0,-121.0
867,382.0,-109.0
868,336.0,-100.0
869,-20.0,-98.0
870,-25.0,-104.0
871,143.0,-118.0
872,470.0,-151.0
873,422.0,-232.0
874,53.0,-399.0
875,-16.0,-675.0
876,268.0,-1050.0
877,664.0,-1480.0
878,622.0,-1904.0
879,244.0,-2253.0
880,-12.0,-2459.0
881,238.0,-2477.0
882,616.0,-2304.0
883,567.0,-1991.0
884,158.0,-1614.0
885,49.0,-261.0
886,-22.0,-120.0
887,-24.0,7.0
888,143.0,132.0
889,136.0,250.0
890,-23.0,348.0
891,-23.0,416.0
892,-20.0,456.0
893,-22.0,477.0
894,-19.0,489.0
895,-16.0,494.0
896,-21.0,492.0
897,-25.0,488.0
898,-15.0,482.0
899,-25.0,478.0
900,-16.0,475.0
901,-23.0,473.0
902,-21.0,474.0
903,-23.0,483.0
904,-21.0,501.0
905,-21.0,531.0
906,-27.0,570.0
907,-25.0,611.0
908,-25.0,650.0
909,-24.0,688.0
910,-23.0,726.0
911,-19.0,796.0
912,-27.0,822.0
913,-21.0,841.0
914,-19.0,858.0
915,-16.0,874.0
916,-16.0,887.0
917,-21.0,894.0
918,-22.0,897.0
919,-19.0,899.0
920,-23.0,901.0
921,-16.0,902.0
922,-20.0,899.0
923,-22.0,884.0
924,-20.0,878.0
925,193.0,870.0
926,483.0,859.0
927,253.0,848.0
928,-22.0,837.0
929,-25.0,825.0
930,-25.0,809.0
931,-20.0,792.0
932,-19.0,772.0
933,-16.0,753.0
934,-25.0,740.0
935,-19.0,739.0
936,-20.0,757.0
937,-22.0,793.0
938,-22.0,835.0
939,-22.0,864.0
940,-22.0,863.0
941,-18.0,823.0
942,-22.0,743.0
943,-25.0,309.0
944,-14.0,284.0
945,-22.0,261.0
946,-22.0,243.0
947,-21.0,232.0
948,-25.0,224.0
949,-21.0,215.0
950,-25.0,204.0
951,-19.0,191.0
952,-22.0,177.0
953,-23.0,162.0
954,-21.0,144.0
955,-22.0,126.0
956,-19.0,108.0
957,-19.0,92.0
958,-19.0,62.0
959,-22.0,46.0
960,-22.0,31.0
961,-27.0,16.0
962,-21.0,3.0
963,-23.0,-10.0
964,-20.0,-24.0
965,-18.0,-37.0
966,-25.0,-49.0
967,-21.0,-59.0
968,-25.0,-71.0
969,171.0,-83.0
970,448.0,-94.0
971,276.0,-105.0
972,19.0,-116.0
973,245.0,-128.0
974,722.0,-140.0
975,875.0,-152.0
976,508.0,-164.0
977,176.0,-176.0
978,388.0,-183.0
979,918.0,-178.0
980,1115.0,-155.0
981,458.0,-67.0
982,504.0,-7.0
983,981.0,63.0
984,1167.0,139.0
985,846.0,206.0
986,498.0,250.0
987,588.0,271.0
988,1040.0,277.0
989,1274.0,277.0
990,1054.0,269.0
991,713.0,250.0
992,721.0,225.0
993,1156.0,203.0
994,1415.0,183.0
995,1105.0,153.0
996,566.0,104.0
997,476.0,41.0
998,898.0,-20.0
999,1163.0,-68.0
1000,932.0,-100.0
1001,544.0,-121.0
1002,492.0,-132.0
1003,919.0,-129.0
1004,1270.0,-118.0
1005,1123.0,-113.0
1006,704.0,-132.0
1007,649.0,-184.0
1008,1118.0,-262.0
1009,1475.0,-354.0
1010,1303.0,-450.0
1011,854.0,-543.0
1012,752.0,-619.0
1013,1179.0,-662.0
1014,1609.0,-664.0
1015,1079.0,-575.0
1016,973.0,-515.0
1017,1342.0,-452.0
1018,1719.0,-389.0
1019,1684.0,-332.0
1020,1295.0,-291.0
1021,1175.0,-269.0
1022,1502.0,-258.0
1023,1795.0,-249.0
1024,1620.0,-237.0
1025,1174.0,-225.0
1026,928.0,-215.0
1027,1236.0,-202.0
1028,1602.0,-183.0
1029,1570.0,-161.0
1030,1175.0,-141.0
1031,966.0,-131.0
1032,1200.0,-129.0
1033,1633.0,-131.0
1034,1682.0,-143.0
1035,1295.0,-173.0
1036,1027.0,-231.0
1037,2022.0,-483.0
1038,1856.0,-553.0
1039,1952.0,-604.0
1040,2280.0,-630.0
1041,2280.0,-625.0
1042,2281.0,-595.0
1043,2278.0,-552.0
1044,2285.0,-510.0
1045,2288.0,-474.0
1046,2278.0,-436.0
1047,2285.0,-384.0
1048,2279.0,-304.0
1049,2283.0,-192.0
1050,2279.0,-51.0
1051,2288.0,107.0
1052,2287.0,266.0
1053,2287.0,401.0
1054,2290.0,488.0
1055,2282.0,510.0
1056,2283.0,468.0
1057,2277.0,376.0
1058,2288.0,262.0
1059,2283.0,-58.0
1060,2286.0,-132.0
1061,2289.0,-181.0
1062,2283.0,-212.0
1063,2287.0,-237.0
1064,2284.0,-265.0
1065,2277.0,-295.0
1066,2284.0,-322.0
1067,2286.0,-344.0
1068,2275.0,-364.0
1069,2279.0,-384.0
1070,2278.0,-400.0
1071,2284.0,-408.0
1072,2283.0,-408.0
1073,2286.0,-405.0
1074,2279.0,-405.0
1075,2279.0,-406.0
1076,2286.0,-404.0
1077,2275.0,-400.0
1078,2288.0,-396.0
1079,2278.0,-397.0
1080,2284.0,-388.0
1081,2283.0,-380.0
1082,2288.0,-374.0
1083,2289.0,-369.0
1084,2282.0,-361.0
1085,2280.0,-349.0
1086,2281.0,-339.0
1087,2286.0,-332.0
1088,2293.0,-326.0
1089,2279.0,-317.0
1090,2259.0,-305.0
1091,2152.0,-293.0
1092,2281.0,-284.0
1093,2282.0,-275.0
1094,2281.0,-264.0
1095,2191.0,-251.0
1096,2082.0,-238.0
1097,2288.0,-228.0
1098,2284.0,-219.0
1099,2284.0,-209.0
1100,2200.0,-200.0
1101,2095.0,-194.0
1102,2209.0,-184.0
1103,2056.0,-180.0
1104,2278.0,-174.0
1105,2284.0,-165.0
1106,2284.0,-151.0
1107,2126.0,-133.0
1108,1861.0,-114.0
1109,2176.0,-96.0
1110,2281.0,-77.0
1111,2275.0,-58.0
1112,1997.0,-40.0
1113,1762.0,-27.0
1114,2068.0,-17.0
1115,1910.0,9.0
1116,1693.0,7.0
1117,1990.0,0.0
1118,2278.0,-8.0
1119,2249.0,-13.0
1120,1795.0,-19.0
1121,1543.0,-26.0
1122,1828.0,-30.0
1123,2256.0,-25.0
1124,2187.0,-13.0
1125,1666.0,0.0
1126,1363.0,9.0
1127,1633.0,17.0
1128,2121.0,31.0
1129,2239.0,48.0
1130,1830.0,59.0
1131,1449.0,59.0
1132,1566.0,53.0
1133,1814.0,51.0
1134,1729.0,53.0
1135,1246.0,52.0
1136,701.0,41.0
1137,581.0,26.0
1138,844.0,20.0
1139,947.0,31.0
1140,532.0,56.0
1141,-22.0,86.0
1142,-22.0,119.0
1143,-25.0,149.0
1144,-22.0,162.0
1145,-24.0,134.0
1146,-28.0,48.0
1147,-24.0,-93.0
1148,-22.0,-268.0
1149,-18.0,-449.0
1150,-20.0,-613.0
1151,-21.0,-749.0
1152,-23.0,-849.0
1153,101.0,-913.0
1154,430.0,-937.0
1155,303.0,-924.0
1156,-25.0,-876.0
1157,-25.0,-794.0
1158,171.0,-675.0
1159,420.0,-520.0
1160,303.0,-339.0
1161,-20.0,-148.0
1162,-18.0,33.0
1163,298.0,195.0
1164,596.0,339.0
1165,434.0,467.0
1166,72.0,578.0
1167,50.0,667.0
1168,463.0,732.0
1169,801.0,773.0
1170,656.0,793.0
1171,189.0,791.0
1172,88.0,775.0
1173,458.0,757.0
1174,849.0,749.0
1175,790.0,755.0
1176,374.0,767.0
1177,257.0,781.0
1178,706.0,798.0
1179,1139.0,820.0
1180,1033.0,842.0
1181,608.0,854.0
1182,456.0,850.0
1183,776.0,836.0
1184,1154.0,818.0
1185,1122.0,800.0
1186,742.0,781.0
1187,568.0,763.0
1188,876.0,755.0
1189,1298.0,768.0
1190,1270.0,797.0
1191,853.0,828.0
1192,656.0,848.0
1193,942.0,852.0
1194,1359.0,842.0
1195,1331.0,818.0
1196,902.0,780.0
1197,651.0,729.0
1198,842.0,678.0
1199,1183.0,638.0
1200,1177.0,615.0
1201,773.0,600.0
1202,466.0,585.0
1203,672.0,565.0
1204,1082.0,544.0
1205,1074.0,522.0
1206,717.0,492.0
1207,409.0,450.0
1208,599.0,396.0
1209,1027.0,337.0
1210,1132.0,276.0
1211,747.0,210.0
1212,436.0,138.0
1213,593.0,65.0
1214,1016.0,1.0
1215,1131.0,-45.0
1216,776.0,-77.0
1217,419.0,-100.0
1218,573.0,-116.0
1219,1036.0,-120.0
1220,769.0,-99.0
1221,424.0,-86.0
1222,582.0,-79.0
1223,1051.0,-72.0
1224,1231.0,-63.0
1225,900.0,-55.0
1226,494.0,-56.0
1227,556.0,-64.0
1228,1002.0,-73.0
1229,1220.0,-77.0
1230,941.0,-78.0
1231,515.0,-82.0
1232,569.0,-91.0
1233,987.0,-97.0
1234,1182.0,-94.0
1235,958.0,-86.0
1236,600.0,-80.0
1237,581.0,-80.0
1238,940.0,-84.0
1239,1206.0,-88.0
1240,998.0,-93.0
1241,598.0,-105.0
1242,576.0,-124.0
1243,949.0,-145.0
1244,1239.0,-158.0
1245,1040.0,-163.0
1246,631.0,-166.0
1247,605.0,-173.0
1248,989.0,-180.0
1249,1302.0,-183.0
1250,1119.0,-182.0
1251,700.0,-183.0
1252,604.0,-190.0
1253,1016.0,-201.0
1254,1279.0,-207.0
1255,847.0,-205.0
1256,721.0,-205.0
1257,1028.0,-206.0
1258,1360.0,-201.0
1259,1260.0,-191.0
1260,846.0,-181.0
1261,734.0,-178.0
1262,1020.0,-179.0
1263,1384.0,-175.0
1264,1353.0,-163.0
1265,953.0,-147.0
1266,792.0,-134.0
1267,1116.0,-127.0
1268,1455.0,-123.0
1269,1374.0,-123.0
1270,997.0,-133.0
1271,864.0,-156.0
1272,1161.0,-187.0
1273,1546.0,-213.0
1274,1534.0,-225.0
1275,1167.0,-225.0
1276,1889.0,-194.0
1277,1945.0,-177.0
1278,1498.0,-164.0
1279,1140.0,-162.0
1280,1259.0,-169.0
1281,1650.0,-175.0
1282,1680.0,-174.0
1283,1272.0,-164.0
1284,1015.0,-150.0
1285,1231.0,-129.0
1286,1668.0,-93.0
1287,1750.0,-39.0
1288,1381.0,21.0
1289,1100.0,69.0
1290,1288.0,91.0
1291,1714.0,79.0
1292,1832.0,34.0
1293,1462.0,-42.0
1294,1106.0,-144.0
1295,1294.0,-251.0
1296,1776.0,-338.0
1297,1911.0,-384.0
1298,1342.0,-326.0
1299,1801.0,-284.0
1300,1954.0,-244.0
1301,1611.0,-214.0
1302,1295.0,-205.0
1303,1457.0,-213.0
1304,1911.0,-227.0
1305,1498.0,-137.0
1306,1607.0,-131.0
1307,1858.0,-75.0
1308,1439.0,-52.0
1309,1580.0,-42.0
1310,2137.0,-44.0
1311,2284.0,-56.0
1312,1998.0,-77.0
1313,1519.0,-108.0
1314,1538.0,-143.0
1315,2033.0,-170.0
1316,2281.0,-183.0
1317,2088.0,-184.0
1318,1791.0,-184.0
1319,1974.0,-190.0
1320,2279.0,-199.0
1321,2276.0,-203.0
1322,2277.0,-201.0
1323,2283.0,-200.0
1324,2281.0,-202.0
1325,2287.0,-207.0
1326,2281.0,-208.0
1327,2292.0,-200.0
1328,2288.0,-183.0
1329,2282.0,-122.0
1330,2284.0,-73.0
1331,2292.0,-12.0
1332,2288.0,52.0
1333,2292.0,108.0
1334,2283.0,142.0
1335,2288.0,153.0
1336,2279.0,146.0
1337,2286.0,125.0
1338,2279.0,89.0
1339,2288.0,40.0
1340,2283.0,-12.0
1341,2277.0,-55.0
1342,2285.0,-80.0
1343,2296.0,-93.0
1344,2290.0,-104.0
1345,2287.0,-116.0
1346,2288.0,-125.0
1347,2284.0,-128.0
1348,2287.0,-132.0
1349,2287.0,-142.0
1350,2281.0,-157.0
1351,2289.0,-170.0
1352,2289.0,-174.0
1353,2283.0,-173.0
1354,2286.0,-174.0
1355,2285.0,-177.0
1356,2278.0,-176.0
1357,2283.0,-171.0
1358,2277.0,-164.0
1359,2283.0,-162.0
1360,2285.0,-165.0
1361,2278.0,-167.0
1362,2278.0,-164.0
1363,2279.0,-158.0
1364,2278.0,-156.0
1365,2276.0,-150.0
1366,2045.0,-143.0
1367,2075.0,-140.0
1368,2284.0,-139.0
1369,2275.0,-137.0
1370,1976.0,-131.0
1371,1644.0,-123.0
1372,1808.0,-117.0
1373,2245.0,-112.0
1374,2270.0,-107.0
1375,1858.0,-103.0
1376,1431.0,-105.0
1377,1525.0,-116.0
1378,1965.0,-134.0
1379,2099.0,-154.0
1380,1625.0,-180.0
1381,1143.0,-214.0
1382,1252.0,-254.0
1383,1721.0,-287.0
1384,1911.0,-305.0
1385,1596.0,-314.0
1386,1282.0,-319.0
1387,850.0,-340.0
1388,838.0,-373.0
1389,1203.0,-398.0
1390,1362.0,-404.0
1391,1049.0,-390.0
1392,608.0,-368.0
1393,542.0,-344.0
1394,887.0,-317.0
1395,1159.0,-289.0
1396,933.0,-271.0
1397,524.0,-274.0
1398,472.0,-295.0
1399,121.0,-308.0
1400,364.0,-297.0
1401,662.0,-279.0
1402,519.0,-254.0
1403,66.0,-226.0
1404,-20.0,-195.0
1405,377.0,-151.0
1406,793.0,-87.0
1407,704.0,-12.0
1408,252.0,55.0
1409,71.0,95.0
1410,368.0,102.0
1411,705.0,78.0
1412,615.0,31.0
1413,243.0,-32.0
1414,84.0,-93.0
1415,431.0,-124.0
1416,858.0,-103.0
1417,775.0,-25.0
1418,362.0,91.0
1419,172.0,219.0
1420,496.0,338.0
1421,899.0,435.0
1422,795.0,500.0
1423,393.0,529.0
1424,212.0,528.0
1425,489.0,516.0
1426,883.0,517.0
1427,894.0,542.0
1428,504.0,586.0
1429,227.0,638.0
1430,474.0,689.0
1431,896.0,734.0
1432,973.0,768.0
1433,602.0,783.0
1434,303.0,776.0
1435,520.0,756.0
1436,951.0,735.0
1437,1034.0,723.0
1438,689.0,718.0
1439,400.0,714.0
1440,540.0,709.0
1441,917.0,707.0
1442,1034.0,711.0
1443,755.0,714.0
1444,394.0,711.0
1445,1226.0,692.0
1446,882.0,693.0
1447,491.0,689.0
1448,573.0,676.0
1449,1024.0,660.0
1450,1219.0,643.0
1451,960.0,625.0
1452,645.0,600.0
1453,770.0,571.0
1454,1181.0,548.0
1455,1349.0,540.0
1456,1006.0,545.0
1457,630.0,552.0
1458,718.0,552.0
1459,1150.0,543.0
1460,1323.0,531.0
1461,989.0,513.0
1462,609.0,490.0
1463,681.0,466.0
1464,1103.0,450.0
1465,1299.0,448.0
1466,1040.0,454.0
1467,597.0,452.0
1468,705.0,205.0
1469,1079.0,158.0
1470,1326.0,125.0
1471,1081.0,104.0
1472,601.0,85.0
1473,546.0,59.0
1474,969.0,30.0
1475,1291.0,6.0
1476,1085.0,-7.0
1477,629.0,-12.0
1478,519.0,-12.0
1479,891.0,-5.0
1480,1213.0,7.0
1481,1040.0,18.0
1482,628.0,11.0
1483,532.0,-22.0
1484,883.0,-73.0
1485,1246.0,-128.0
1486,1093.0,-173.0
1487,639.0,-207.0
1488,487.0,-231.0
1489,843.0,-244.0
1490,1203.0,-245.0
1491,1169.0,-240.0
1492,730.0,-237.0
1493,868.0,-253.0
1494,1261.0,-259.0
1495,1168.0,-256.0
1496,723.0,-249.0
1497,559.0,-247.0
1498,827.0,-249.0
1499,1233.0,-250.0
1500,1196.0,-247.0
1501,801.0,-241.0
1502,603.0,-238.0
1503,920.0,-235.0
1504,847.0,-198.0
1505,603.0,-196.0
1506,829.0,-205.0
1507,1247.0,-218.0
1508,1279.0,-226.0
1509,860.0,-231.0
1510,566.0,-233.0
1511,745.0,-231.0
1512,1117.0,-221.0
1513,1168.0,-202.0
1514,809.0,-181.0
1515,532.0,-171.0
1516,1216.0,-198.0
1517,864.0,-210.0
1518,530.0,-227.0
1519,703.0,-249.0
1520,1143.0,-270.0
1521,1234.0,-286.0
1522,875.0,-299.0
1523,563.0,-313.0
1524,722.0,-329.0
1525,1181.0,-338.0
1526,1304.0,-333.0
1527,989.0,-316.0
1528,736.0,-296.0
1529,927.0,-279.0
1530,1365.0,-264.0
1531,1503.0,-247.0
1532,1141.0,-231.0
1533,685.0,-221.0
1534,751.0,-220.0
1535,1162.0,-218.0
1536,1342.0,-207.0
1537,1040.0,-187.0
1538,581.0,-160.0
1539,578.0,-129.0
1540,1069.0,-90.0
1541,1362.0,-42.0
1542,1118.0,3.0
1543,697.0,33.0
1544,676.0,33.0
1545,1031.0,7.0
1546,1291.0,-38.0
1547,1061.0,-96.0
1548,705.0,-162.0
1549,706.0,-229.0
1550,1086.0,-281.0
1551,1358.0,-304.0
1552,1115.0,-296.0
1553,709.0,-269.0
1554,663.0,-236.0
1555,1082.0,-204.0
1556,1375.0,-173.0
1557,1151.0,-149.0
1558,1294.0,-160.0
1559,1161.0,-150.0
1560,795.0,-134.0
1561,727.0,-119.0
1562,1107.0,-109.0
1563,1407.0,-98.0
1564,1209.0,-87.0
1565,772.0,-80.0
1566,698.0,-82.0
1567,1116.0,-90.0
1568,1462.0,-96.0
1569,1333.0,-96.0
1570,902.0,-93.0
1571,725.0,-90.0
1572,1429.0,-69.0
1573,1356.0,-46.0
1574,967.0,-24.0
1575,813.0,-13.0
1576,1118.0,-11.0
1577,1498.0,-10.0
1578,1486.0,-3.0
1579,1079.0,4.0
1580,912.0,9.0
1581,1202.0,11.0
1582,1586.0,14.0
1583,1515.0,19.0
1584,1148.0,22.0
1585,975.0,20.0
1586,1284.0,15.0
1587,1754.0,18.0
1588,1759.0,33.0
1589,1299.0,57.0
1590,999.0,78.0
1591,1215.0,94.0
1592,1648.0,107.0
1593,1766.0,119.0
1594,1390.0,125.0
1595,1671.0,113.0
1596,1741.0,126.0
1597,1353.0,146.0
1598,1067.0,162.0
1599,1277.0,164.0
1600,1692.0,155.0
1601,1735.0,139.0
1602,1359.0,118.0
1603,1063.0,90.0
1604,1256.0,62.0
1605,1751.0,42.0
1606,1891.0,35.0
1607,1491.0,35.0
1608,1145.0,17.0
1609,1582.0,-1.0
1610,1739.0,-16.0
1611,1434.0,-28.0
1612,1049.0,-41.0
1613,1110.0,-55.0
1614,1477.0,-60.0
1615,1655.0,-51.0
1616,1381.0,-31.0
1617,1011.0,-14.0
1618,1056.0,-9.0
1619,1468.0,-17.0
1620,1666.0,-34.0
1621,1335.0,-58.0
1622,899.0,-92.0
1623,996.0,-133.0
1624,1444.0,-169.0
1625,1657.0,-189.0
1626,1668.0,-53.0
1627,1502.0,-30.0
1628,1057.0,-12.0
1629,951.0,-2.0
1630,1308.0,6.0
1631,1608.0,25.0
1632,1450.0,55.0
1633,1006.0,85.0
1634,884.0,102.0
1635,1227.0,101.0
1636,1578.0,86.0
1637,1412.0,62.0
1638,983.0,31.0
1639,831.0,-1.0
1640,1088.0,-26.0
1641,1469.0,-34.0
1642,1431.0,-26.0
1643,1094.0,-13.0
1644,879.0,-8.0
1645,1129.0,-12.0
1646,1520.0,-20.0
1647,1502.0,-25.0
1648,1167.0,-30.0
1649,1026.0,-40.0
1650,1375.0,-53.0
1651,1810.0,-61.0
1652,1782.0,-59.0
1653,1306.0,-47.0
1654,971.0,-33.0
1655,1167.0,-17.0
1656,1561.0,4.0
1657,1538.0,34.0
1658,1069.0,69.0
1659,812.0,102.0
1660,1100.0,134.0
1661,1557.0,175.0
1662,1582.0,225.0
1663,1131.0,276.0
1664,825.0,307.0
1665,1056.0,307.0
1666,1450.0,275.0
1667,1423.0,216.0
1668,827.0,40.0
1669,1057.0,-48.0
1670,1520.0,-108.0
1671,1602.0,-128.0
1672,1221.0,-113.0
1673,855.0,-81.0
1674,1012.0,-45.0
1675,1443.0,-16.0
1676,1534.0,1.0
1677,1202.0,4.0
1678,858.0,-9.0
1679,1000.0,-30.0
1680,1473.0,-40.0
1681,1630.0,-28.0
1682,1293.0,5.0
1683,933.0,46.0
1684,1025.0,80.0
1685,1410.0,105.0
1686,1519.0,117.0
1687,1223.0,115.0
1688,916.0,97.0
1689,1045.0,69.0
1690,1286.0,55.0
1691,951.0,77.0
1692,1038.0,96.0
1693,1457.0,108.0
1694,1637.0,113.0
1695,1363.0,108.0
1696,1041.0,91.0
1697,1115.0,64.0
1698,1509.0,41.0
1699,1742.0,33.0
1700,1520.0,41.0
1701,1100.0,58.0
1702,1074.0,73.0
1703,1553.0,85.0
1704,1928.0,96.0
1705,1745.0,106.0
1706,1352.0,111.0
1707,1321.0,110.0
1708,1731.0,111.0
1709,2017.0,121.0
1710,1826.0,137.0
1711,1407.0,152.0
1712,1394.0,157.0
1713,1792.0,156.0
1714,2067.0,159.0
1715,1861.0,290.0
1716,1404.0,301.0
1717,1326.0,291.0
1718,1745.0,265.0
1719,2140.0,233.0
1720,1976.0,202.0
1721,1483.0,167.0
1722,1373.0,127.0
1723,1759.0,85.0
1724,2108.0,50.0
1725,1935.0,24.0
1726,1444.0,5.0
1727,1308.0,-12.0
1728,1704.0,-24.0
1729,2104.0,-24.0
1730,1983.0,-13.0
1731,1513.0,0.0
1732,1293.0,7.0
1733,1551.0,7.0
1734,1936.0,4.0
1735,1907.0,-1.0
1736,1466.0,-16.0
1737,1239.0,-43.0
1738,1482.0,-77.0
1739,1792.0,-103.0
1740,1723.0,-115.0
1741,1296.0,-118.0
1742,1063.0,-121.0
1743,1322.0,-129.0
1744,1706.0,-138.0
1745,1718.0,-148.0
1746,1316.0,-162.0
1747,1744.0,-257.0
1748,1380.0,-273.0
1749,1093.0,-293.0
1750,1231.0,-319.0
1751,1663.0,-340.0
1752,1752.0,-347.0
1753,1332.0,-340.0
1754,947.0,-326.0
1755,1135.0,-309.0
1756,1643.0,-286.0
1757,1780.0,-255.0
1758,1416.0,-220.0
1759,1034.0,-191.0
1760,1112.0,-168.0
1761,1504.0,-148.0
1762,1659.0,-125.0
1763,1356.0,-106.0
1764,958.0,-101.0
1765,1028.0,-109.0
1766,1421.0,-122.0
1767,1570.0,-126.0
1768,1191.0,-118.0
1769,1469.0,-66.0
1770,1172.0,-57.0
1771,788.0,-61.0
1772,847.0,-79.0
1773,1252.0,-103.0
1774,1409.0,-121.0
1775,1054.0,65.0
1776,1353.0,98.0
1777,1196.0,141.0
1778,804.0,189.0
1779,691.0,233.0
1780,1010.0,270.0
1781,1335.0,295.0
1782,1204.0,300.0
1783,782.0,273.0
1784,654.0,210.0
1785,992.0,124.0
1786,1316.0,39.0
1787,1223.0,-26.0
1788,782.0,-65.0
1789,607.0,-79.0
1790,987.0,-72.0
1791,1380.0,-44.0
1792,1267.0,-3.0
1793,831.0,34.0
1794,655.0,58.0
1795,985.0,66.0
1796,1354.0,69.0
1797,1296.0,73.0
1798,878.0,77.0
1799,651.0,78.0
1800,913.0,78.0
1801,1329.0,86.0
1802,1364.0,104.0
1803,995.0,125.0
1804,724.0,142.0
1805,923.0,153.0
1806,1301.0,162.0
1807,1318.0,174.0
1808,984.0,181.0
1809,718.0,178.0
1810,976.0,167.0
1811,1407.0,156.0
1812,786.0,167.0
1813,1029.0,171.0
1814,1471.0,175.0
1815,1572.0,182.0
1816,1207.0,185.0
1817,943.0,178.0
1818,1184.0,164.0
1819,1704.0,308.0
1820,1340.0,321.0
1821,1428.0,325.0
1822,1632.0,350.0
1823,1262.0,358.0
1824,1400.0,355.0
1825,1875.0,343.0
1826,2085.0,328.0
1827,1811.0,309.0
1828,1399.0,281.0
1829,1446.0,247.0
1830,1941.0,215.0
1831,2183.0,189.0
1832,1824.0,168.0
1833,1412.0,140.0
1834,1462.0,101.0
1835,1899.0,59.0
1836,2140.0,27.0
1837,1823.0,9.0
1838,1386.0,0.0
1839,1361.0,-2.0
1840,1772.0,2.0
1841,2047.0,13.0
1842,1775.0,25.0
1843,1313.0,25.0
1844,1269.0,8.0
1845,1644.0,-20.0
1846,1933.0,-49.0
1847,1732.0,-77.0
1848,1336.0,-106.0
1849,1253.0,-141.0
1850,1591.0,-177.0
1851,1859.0,-206.0
1852,1686.0,-228.0
1853,1221.0,-250.0
1854,1043.0,-277.0
1855,1599.0,-337.0
1856,1179.0,-342.0
1857,1000.0,-346.0
1858,1330.0,-347.0
1859,1707.0,-342.0
1860,1607.0,-331.0
1861,1130.0,-326.0
1862,918.0,-336.0
1863,1216.0,-361.0
1864,1639.0,-390.0
1865,1591.0,-413.0
1866,1133.0,-429.0
1867,931.0,-439.0
1868,1219.0,-439.0
1869,1588.0,-422.0
1870,1525.0,-389.0
1871,1087.0,-352.0
1872,848.0,-325.0
1873,1038.0,-312.0
1874,1460.0,-305.0
1875,1460.0,-298.0
1876,907.0,-275.0
1877,1369.0,-260.0
1878,1421.0,-237.0
1879,992.0,-213.0
1880,640.0,-202.0
1881,821.0,-205.0
1882,1246.0,-215.0
1883,1278.0,-223.0
1884,988.0,-184.0
1885,1378.0,-192.0
1886,999.0,-161.0
1887,570.0,-126.0
1888,604.0,-83.0
1889,1034.0,-29.0
1890,1232.0,36.0
1891,902.0,108.0
1892,534.0,174.0
1893,612.0,227.0
1894,1046.0,267.0
1895,1276.0,294.0
1896,984.0,301.0
1897,535.0,276.0
1898,541.0,217.0
1899,1000.0,136.0
1900,1267.0,53.0
1901,1015.0,-17.0
1902,601.0,-69.0
1903,556.0,-96.0
1904,965.0,-90.0
1905,1275.0,-52.0
1906,1108.0,5.0
1907,722.0,61.0
1908,646.0,101.0
1909,1354.0,133.0
1910,1166.0,140.0
1911,765.0,140.0
1912,705.0,135.0
1913,1093.0,132.0
1914,1385.0,142.0
1915,1201.0,165.0
1916,763.0,193.0
1917,638.0,217.0
1918,1017.0,237.0
1919,1381.0,260.0
1920,1240.0,285.0
1921,776.0,305.0
1922,630.0,313.0
1923,951.0,311.0
1924,1314.0,309.0
1925,1262.0,309.0
1926,859.0,305.0
1927,683.0,291.0
1928,1023.0,269.0
1929,1444.0,249.0
1930,1395.0,235.0
1931,1003.0,224.0
1932,826.0,209.0
1933,1158.0,192.0
1934,1553.0,180.0
1935,1506.0,176.0
1936,1126.0,175.0
1937,950.0,173.0
1938,1333.0,171.0
1939,1780.0,178.0
1940,1749.0,200.0
1941,1324.0,228.0
1942,1067.0,253.0
1943,1288.0,273.0
1944,1714.0,290.0
1945,1728.0,307.0
1946,1316.0,320.0
1947,1078.0,324.0
1948,1336.0,323.0
1949,1716.0,328.0
1950,1717.0,344.0
1951,1322.0,366.0
1952,1071.0,380.0
1953,1293.0,379.0
1954,1680.0,364.0
1955,1722.0,338.0
1956,1298.0,299.0
1957,994.0,248.0
1958,1177.0,193.0
1959,1629.0,147.0
1960,1738.0,117.0
1961,1347.0,99.0
1962,968.0,84.0
1963,1052.0,65.0
1964,1497.0,46.0
1965,1669.0,29.0
1966,1302.0,10.0
1967,904.0,-16.0
1968,1050.0,-50.0
1969,1484.0,-81.0
1970,1609.0,-103.0
1971,1277.0,-115.0
1972,898.0,-126.0
1973,951.0,-141.0
1974,1312.0,-157.0
1975,1467.0,-169.0
1976,1202.0,-180.0
1977,848.0,-196.0
1978,915.0,-217.0
1979,1377.0,-233.0
1980,1552.0,-236.0
1981,1210.0,-230.0
1982,825.0,-224.0
1983,888.0,-226.0
1984,1345.0,-237.0
1985,1602.0,-250.0
1986,1299.0,-264.0
1987,843.0,-280.0
1988,837.0,-297.0
1989,1241.0,-304.0
1990,935.0,-236.0
1991,862.0,-212.0
1992,1201.0,-194.0
1993,1521.0,-176.0
1994,1407.0,-159.0
1995,1013.0,-148.0
1996,933.0,-148.0
1997,1303.0,-152.0
1998,1294.0,-25.0
1999,847.0,-16.0
2000,729.0,-26.0
2001,1071.0,-53.0
2002,1421.0,-85.0
2003,1336.0,-111.0
2004,884.0,-131.0
2005,668.0,-145.0
2006,973.0,-151.0
2007,1409.0,-145.0
2008,1412.0,-128.0
2009,977.0,-113.0
2010,763.0,-109.0
2011,1032.0,-113.0
2012,1214.0,-103.0
2013,973.0,-98.0
2014,1253.0,-96.0
2015,1594.0,-89.0
2016,1497.0,-74.0
2017,1031.0,-55.0
2018,740.0,-38.0
2019,969.0,-22.0
2020,1351.0,1.0
2021,1367.0,39.0
2022,1020.0,85.0
2023,726.0,131.0
2024,909.0,171.0
2025,1326.0,206.0
2026,1391.0,231.0
2027,1018.0,233.0
2028,703.0,200.0
2029,856.0,135.0
2030,1299.0,54.0
2031,1459.0,-24.0
2032,1122.0,-87.0
2033,765.0,-129.0
2034,872.0,-149.0
2035,1296.0,-143.0
2036,1408.0,-114.0
2037,1088.0,-76.0
2038,775.0,-45.0
2039,876.0,-30.0
2040,1310.0,-25.0
2041,1550.0,-19.0
2042,1231.0,-10.0
2043,876.0,-1.0
2044,973.0,5.0
2045,1373.0,13.0
2046,1517.0,27.0
2047,1222.0,40.0
2048,848.0,43.0
2049,933.0,37.0
2050,1416.0,29.0
2051,1639.0,33.0
2052,1391.0,50.0
2053,974.0,74.0
2054,991.0,99.0
2055,1404.0,121.0
2056,1657.0,141.0
2057,1391.0,154.0
2058,1075.0,129.0
2059,1496.0,105.0
2060,1711.0,90.0
2061,1490.0,92.0
2062,1163.0,104.0
2063,1258.0,120.0
2064,1721.0,136.0
2065,2067.0,151.0
2066,1818.0,161.0
2067,1365.0,159.0
2068,1362.0,145.0
2069,1818.0,126.0
2070,2166.0,115.0
2071,1955.0,117.0
2072,1478.0,126.0
2073,1435.0,142.0
2074,1877.0,167.0
2075,2247.0,207.0
2076,2007.0,256.0
2077,1511.0,303.0
2078,1440.0,336.0
2079,1860.0,353.0
2080,2264.0,357.0
2081,2047.0,350.0
2082,1528.0,329.0
2083,1394.0,297.0
2084,1824.0,261.0
2085,2238.0,234.0
2086,2080.0,215.0
2087,1572.0,197.0
2088,1422.0,173.0
2089,1816.0,144.0
2090,2268.0,117.0
2091,2104.0,95.0
2092,1545.0,70.0
2093,1423.0,39.0
2094,1839.0,5.0
2095,2266.0,-21.0
2096,2184.0,-39.0
2097,1693.0,-54.0
2098,1444.0,-70.0
2099,1755.0,-85.0
2100,2214.0,-94.0
2101,2184.0,-95.0
2102,1706.0,-97.0
2103,1456.0,-107.0
2104,1738.0,-123.0
2105,2233.0,-133.0
2106,2211.0,-134.0
2107,1683.0,-130.0
2108,1367.0,-129.0
2109,1696.0,-133.0
2110,2175.0,-137.0
2111,2153.0,-140.0
2112,1694.0,-145.0
2113,1427.0,-160.0
2114,1694.0,-179.0
2115,1717.0,-192.0
2116,1359.0,-196.0
2117,1558.0,-207.0
2118,2054.0,-220.0
2119,2220.0,-229.0
2120,1776.0,-236.0
2121,1384.0,-243.0
2122,1572.0,-249.0
2123,2063.0,-247.0
2124,2213.0,-233.0
2125,1780.0,-215.0
2126,1382.0,-206.0
2127,1537.0,-211.0
2128,2019.0,-222.0
2129,2200.0,-230.0
2130,1810.0,-235.0
2131,1382.0,-238.0
2132,1510.0,-239.0
2133,2009.0,-233.0
2134,2198.0,-213.0
2135,1791.0,-189.0
2136,1310.0,-172.0
2137,2081.0,-169.0
2138,1769.0,-165.0
2139,1352.0,-164.0
2140,1382.0,-165.0
2141,1789.0,-164.0
2142,2033.0,-155.0
2143,1749.0,-141.0
2144,1322.0,-135.0
2145,1329.0,-144.0
2146,1766.0,-164.0
2147,2058.0,-183.0
2148,1803.0,-196.0
2149,1335.0,-204.0
2150,1228.0,-209.0
2151,1589.0,-204.0
2152,1920.0,-186.0
2153,1812.0,-157.0
2154,1450.0,-132.0
2155,1411.0,-119.0
2156,1801.0,-114.0
2157,2134.0,-106.0
2158,1972.0,-93.0
2159,1680.0,-79.0
2160,2034.0,-84.0
2161,1868.0,-85.0
2162,1348.0,-79.0
2163,1149.0,-67.0
2164,1460.0,-42.0
2165,1849.0,3.0
2166,1784.0,68.0
2167,1347.0,133.0
2168,1166.0,180.0
2169,1466.0,198.0
2170,1793.0,191.0
2171,1699.0,165.0
2172,1266.0,121.0
2173,1072.0,59.0
2174,1376.0,-7.0
2175,1770.0,-64.0
2176,1744.0,-97.0
2177,1315.0,-109.0
2178,1047.0,-106.0
2179,1278.0,-92.0
2180,1674.0,-68.0
2181,1648.0,-37.0
2182,1226.0,-12.0
2183,961.0,-3.0
2184,1197.0,-10.0
2185,1628.0,-19.0
2186,1679.0,-21.0
2187,1315.0,-13.0
2188,1077.0,-3.0
2189,1226.0,6.0
2190,1566.0,16.0
2191,1649.0,28.0
2192,1273.0,35.0
2193,959.0,29.0
2194,1150.0,14.0
2195,1572.0,1.0
2196,1645.0,2.0
2197,1251.0,19.0
2198,919.0,45.0
2199,1128.0,72.0
2200,1608.0,100.0
2201,1781.0,128.0
2202,1427.0,148.0
2203,1039.0,151.0
2204,1164.0,136.0
2205,1498.0,99.0
2206,1138.0,99.0
2207,1232.0,100.0
2208,1641.0,110.0
2209,1847.0,133.0
2210,1569.0,167.0
2211,1234.0,200.0
2212,1344.0,226.0
2213,1798.0,250.0
2214,2023.0,274.0
2215,1752.0,296.0
2216,1342.0,307.0
2217,1372.0,306.0
2218,1771.0,299.0
2219,2032.0,294.0
2220,1759.0,295.0
2221,1354.0,294.0
2222,1343.0,292.0
2223,1722.0,296.0
2224,1988.0,313.0
2225,1786.0,340.0
2226,1329.0,366.0
2227,1289.0,379.0
2228,1709.0,378.0
2229,1998.0,369.0
2230,1749.0,352.0
2231,1268.0,324.0
2232,1187.0,286.0
2233,1614.0,245.0
2234,1974.0,213.0
2235,1792.0,191.0
2236,1323.0,174.0
2237,1208.0,154.0
2238,1524.0,133.0
2239,1257.0,95.0
2240,1146.0,71.0
2241,1455.0,42.0
2242,1769.0,18.0
2243,1627.0,6.0
2244,1164.0,0.0
2245,972.0,-5.0
2246,1295.0,-13.0
2247,1691.0,-19.0
2248,1624.0,-25.0
2249,1204.0,-38.0
2250,1010.0,-62.0
2251,1284.0,-92.0
2252,1138.0,-129.0
2253,896.0,-138.0
2254,1167.0,-153.0
2255,1600.0,-165.0
2256,1546.0,-171.0
2257,1119.0,-170.0
2258,887.0,-167.0
2259,1190.0,-160.0
2260,1610.0,-145.0
2261,1614.0,-123.0
2262,1193.0,-103.0
2263,897.0,-98.0
2264,1110.0,-108.0
2265,1530.0,-123.0
2266,1573.0,-134.0
2267,1229.0,-140.0
2268,937.0,-145.0
2269,1108.0,-144.0
2270,1556.0,-131.0
2271,1664.0,-104.0
2272,1296.0,-71.0
2273,964.0,-45.0
2274,1130.0,-31.0
2275,1533.0,-26.0
2276,1648.0,-24.0
2277,1319.0,-24.0
2278,960.0,-30.0
2279,1081.0,-37.0
2280,1532.0,-36.0
2281,1662.0,-21.0
2282,1291.0,3.0
2283,919.0,27.0
2284,984.0,41.0
2285,1364.0,50.0
2286,1519.0,57.0
2287,1232.0,62.0
2288,864.0,57.0
2289,944.0,43.0
2290,1326.0,30.0
2291,1493.0,25.0
2292,1209.0,26.0
2293,824.0,24.0
2294,870.0,13.0
2295,1262.0,-4.0
2296,1444.0,-22.0
2297,1110.0,-40.0
2298,708.0,-60.0
2299,787.0,-81.0
2300,1240.0,-96.0
2301,1506.0,-97.0
2302,1246.0,-86.0
2303,787.0,-73.0
2304,720.0,-66.0
2305,1110.0,-64.0
2306,1522.0,-63.0
2307,1428.0,-64.0
2308,1096.0,-73.0
2309,1049.0,-88.0
2310,1446.0,-101.0
2311,1728.0,-99.0
2312,1451.0,-81.0
2313,942.0,-56.0
2314,788.0,-36.0
2315,1071.0,-20.0
2316,1339.0,-2.0
2317,1200.0,20.0
2318,843.0,49.0
2319,783.0,84.0
2320,1106.0,131.0
2321,1375.0,191.0
2322,1187.0,250.0
2323,755.0,286.0
2324,681.0,276.0
2325,1072.0,218.0
2326,1411.0,127.0
2327,1301.0,23.0
2328,821.0,-74.0
2329,634.0,-151.0
2330,992.0,-192.0
2331,1406.0,-190.0
2332,1357.0,-154.0
2333,926.0,-104.0
2334,665.0,-63.0
2335,940.0,-37.0
2336,1303.0,-24.0
2337,1290.0,-16.0
2338,875.0,-13.0
2339,623.0,-16.0
2340,883.0,-19.0
2341,1308.0,-15.0
2342,715.0,-4.0
2343,936.0,-1.0
2344,1366.0,-1.0
2345,1102.0,2.0
2346,820.0,3.0
2347,1007.0,5.0
2348,1470.0,19.0
2349,1657.0,49.0
2350,1338.0,86.0
2351,1012.0,117.0
2352,1187.0,133.0
2353,1655.0,137.0
2354,1840.0,134.0
2355,1576.0,125.0
2356,1112.0,255.0
2357,1583.0,188.0
2358,1847.0,119.0
2359,1561.0,59.0
2360,1098.0,10.0
2361,1071.0,-24.0
2362,1477.0,-42.0
2363,1789.0,-44.0
2364,1541.0,-39.0
2365,1094.0,-43.0
2366,1029.0,-64.0
2367,1468.0,-93.0
2368,1781.0,-118.0
2369,1576.0,-131.0
2370,1129.0,-137.0
2371,1044.0,-141.0
2372,1396.0,-143.0
2373,1701.0,-140.0
2374,1538.0,-137.0
2375,1090.0,-141.0
2376,1000.0,-156.0
2377,1372.0,-173.0
2378,1681.0,-182.0
2379,912.0,-211.0
2380,1216.0,-216.0
2381,1550.0,-216.0
2382,1424.0,-208.0
2383,970.0,-198.0
2384,753.0,-194.0
2385,1028.0,-195.0
2386,1488.0,-196.0
2387,1496.0,-192.0
2388,1062.0,-187.0
2389,803.0,-184.0
2390,1031.0,-181.0
2391,1450.0,-173.0
2392,1419.0,-161.0
2393,784.0,-162.0
2394,982.0,-183.0
2395,1392.0,-204.0
2396,1463.0,-214.0
2397,1107.0,-211.0
2398,811.0,-198.0
2399,951.0,-177.0
2400,1393.0,-150.0
2401,1487.0,-118.0
2402,1119.0,-93.0
2403,753.0,-83.0
2404,812.0,-88.0
2405,1206.0,-98.0
2406,1375.0,-100.0
2407,1028.0,-93.0
2408,672.0,-83.0
2409,755.0,-72.0
2410,1143.0,-56.0
2411,1268.0,-34.0
2412,927.0,-12.0
2413,536.0,-1.0
2414,584.0,-8.0
2415,980.0,-26.0
2416,1136.0,-46.0
2417,781.0,-64.0
2418,361.0,-84.0
2419,374.0,-104.0
2420,785.0,-116.0
2421,1016.0,-114.0
2422,703.0,-104.0
2423,281.0,-96.0
2424,298.0,-99.0
2425,740.0,-109.0
2426,1018.0,-119.0
2427,764.0,-129.0
2428,335.0,-144.0
2429,56.0,-165.0
2430,120.0,-185.0
2431,121.0,-195.0
2432,-25.0,-193.0
2433,-22.0,-187.0
2434,-18.0,-178.0
2435,-22.0,-162.0
2436,-24.0,-130.0
2437,-21.0,-85.0
2438,-21.0,-42.0
2439,-19.0,-23.0
2440,-21.0,-41.0
2441,-25.0,-101.0
2442,-21.0,-193.0
2443,-22.0,-303.0
2444,-25.0,-409.0
2445,-21.0,-489.0
2446,-26.0,-518.0
2447,-24.0,-486.0
2448,-24.0,-403.0
2449,-22.0,-293.0
2450,-26.0,-186.0
2451,-21.0,51.0
2452,-25.0,65.0
2453,-20.0,70.0
2454,-18.0,79.0
2455,-16.0,99.0
2456,-20.0,126.0
2457,-25.0,152.0
2458,-20.0,177.0
2459,-21.0,204.0
2460,-20.0,232.0
2461,-20.0,380.0
2462,-21.0,382.0
2463,-25.0,387.0
2464,-24.0,391.0
2465,-20.0,391.0
2466,-18.0,388.0
2467,-22.0,386.0
2468,-20.0,388.0
2469,-25.0,389.0
2470,-19.0,387.0
2471,461.0,383.0
2472,872.0,379.0
2473,722.0,377.0
2474,523.0,375.0
2475,697.0,369.0
2476,1167.0,361.0
2477,1388.0,352.0
2478,1120.0,342.0
2479,765.0,331.0
2480,856.0,326.0
2481,1303.0,344.0
2482,1553.0,400.0
2483,1388.0,494.0
2484,1119.0,618.0
2485,1305.0,757.0
2486,1890.0,898.0
2487,2275.0,1025.0
2488,2143.0,1112.0
2489,1851.0,1142.0
2490,1979.0,1115.0
2491,2278.0,1050.0
2492,2282.0,968.0
2493,2198.0,886.0
2494,1812.0,812.0
2495,1922.0,765.0
2496,2207.0,369.0
2497,1790.0,253.0
2498,1763.0,164.0
2499,2226.0,100.0
2500,2279.0,54.0
2501,2187.0,15.0
2502,1760.0,-29.0
2503,1735.0,-85.0
2504,2204.0,-148.0
2505,2280.0,-212.0
2506,2261.0,-274.0
2507,1845.0,-335.0
2508,1728.0,-393.0
2509,2138.0,-441.0
2510,2193.0,-501.0
2511,1747.0,-528.0
2512,1657.0,-558.0
2513,2164.0,-589.0
2514,2282.0,-613.0
2515,2278.0,-631.0
2516,1998.0,-646.0
2517,1807.0,-663.0
2518,2182.0,-677.0
2519,2278.0,-688.0
2520,2278.0,-700.0
2521,2281.0,-720.0
2522,2283.0,-748.0
2523,2281.0,-777.0
2524,2284.0,-795.0
2525,2289.0,-795.0
2526,2285.0,-781.0
2527,2286.0,-759.0
2528,2282.0,-732.0
2529,2285.0,-702.0
2530,2288.0,-671.0
2531,2278.0,-640.0
2532,2284.0,-582.0
2533,2283.0,-558.0
2534,2296.0,-537.0
2535,2288.0,-523.0
2536,2288.0,-521.0
2537,2282.0,-533.0
2538,2289.0,-556.0
2539,2282.0,-580.0
2540,2282.0,-595.0
2541,2291.0,-601.0
2542,2279.0,-601.0
2543,2289.0,-599.0
2544,2285.0,-593.0
2545,2279.0,-581.0
2546,2292.0,-567.0
2547,2290.0,-557.0
2548,2283.0,-551.0
2549,2290.0,-548.0
2550,2283.0,-542.0
2551,2281.0,-534.0
2552,2290.0,-528.0
2553,2282.0,-522.0
2554,2292.0,-490.0
2555,2286.0,-476.0
2556,2285.0,-465.0
2557,2284.0,-453.0
2558,2284.0,-439.0
2559,2286.0,-424.0
2560,2285.0,-410.0
2561,2292.0,-399.0
2562,2282.0,-388.0
2563,2288.0,-375.0
2564,2281.0,-359.0
2565,2230.0,-344.0
2566,-20.0,-302.0
2567,-21.0,-285.0
2568,-25.0,-270.0
2569,-18.0,-257.0
2570,-25.0,-239.0
2571,-26.0,-209.0
2572,-25.0,-175.0
2573,-21.0,-165.0
2574,-20.0,-225.0
2575,-23.0,-394.0
2576,-22.0,-651.0
2577,-25.0,-592.0
2578,-23.0,-571.0
2579,-18.0,-556.0
2580,300.0,-526.0
2581,802.0,-470.0
2582,1051.0,-386.0
2583,1178.0,-280.0
2584,1219.0,-162.0
2585,1139.0,-46.0
2586,1150.0,58.0
2587,1161.0,146.0
2588,1383.0,220.0
2589,2237.0,289.0
2590,2283.0,651.0
2591,2283.0,874.0
2592,2273.0,1138.0
2593,-26.0,1408.0
2594,-19.0,1640.0
2595,-24.0,1802.0
2596,-19.0,1890.0
2597,1121.0,-711.0
2598,1112.0,-893.0
2599,1110.0,-111.0
2600,631.0,354.0
2601,-22.0,786.0
2602,-21.0,1129.0
2603,-20.0,1353.0
2604,-19.0,1448.0
2605,23.0,1424.0
2606,455.0,1306.0
2607,770.0,1138.0
2608,1023.0,964.0
2609,1036.0,810.0
2610,1080.0,678.0
2611,960.0,548.0
2612,380.0,398.0
2613,-25.0,217.0
2614,224.0,13.0
2615,-26.0,-180.0
2616,-26.0,-316.0
2617,-25.0,-344.0
2618,-24.0,-236.0
2619,-25.0,0.0
2620,-20.0,318.0
2621,-24.0,636.0
2622,-24.0,868.0
2623,-22.0,948.0
2624,-26.0,851.0
2625,-22.0,601.0
2626,-33.0,261.0
2627,-24.0,-89.0
2628,-22.0,-373.0
2629,-25.0,-537.0
2630,-20.0,-567.0
2631,-17.0,-485.0
2632,-21.0,-337.0
2633,-25.0,-176.0
2634,-20.0,-40.0
2635,-21.0,47.0
2636,-23.0,85.0
2637,-21.0,82.0
2638,-22.0,58.0
2639,-25.0,29.0
2640,-24.0,9.0
2641,-19.0,5.0
2642,-20.0,16.0
2643,-20.0,39.0
2644,-24.0,65.0
2645,-20.0,90.0
2646,-26.0,111.0
2647,-26.0,125.0
2648,-20.0,135.0
2649,-19.0,140.0
2650,-23.0,143.0
2651,-23.0,146.0
2652,-24.0,148.0
2653,-22.0,150.0
2654,-16.0,152.0
2655,-26.0,154.0
2656,-22.0,156.0
2657,-29.0,157.0
2658,-22.0,157.0
2659,-20.0,156.0
2660,-22.0,154.0
2661,-20.0,152.0
2662,-20.0,150.0
2663,-20.0,148.0
2664,-22.0,146.0
2665,-22.0,143.0
2666,-19.0,80.0
2667,-25.0,73.0
2668,-24.0,66.0
2669,-22.0,59.0
2670,-18.0,53.0
2671,-22.0,46.0
2672,-23.0,40.0
2673,-19.0,34.0
2674,-24.0,29.0
2675,-27.0,23.0
2676,-25.0,17.0
2677,-18.0,11.0
2678,-22.0,4.0
2679,-23.0,-2.0
2680,-26.0,-9.0
2681,-25.0,-16.0
2682,-20.0,-23.0
2683,-25.0,-29.0
2684,-23.0,-34.0
2685,-16.0,-40.0
2686,-16.0,-45.0
2687,-20.0,-51.0
2688,-21.0,-56.0
2689,-23.0,-62.0
2690,-24.0,-67.0
2691,-21.0,-72.0
2692,-21.0,-77.0
2693,-23.0,-82.0
2694,-25.0,-86.0
2695,-20.0,-90.0
2696,-20.0,-94.0
2697,-23.0,-97.0
2698,-23.0,-101.0
2699,-22.0,-104.0
2700,-21.0,-108.0
2701,-24.0,-112.0
2702,-21.0,-116.0
2703,-25.0,-121.0
2704,-25.0,-126.0
2705,-22.0,-130.0
2706,-20.0,-134.0
2707,-25.0,-137.0
2708,-23.0,-139.0
2709,-19.0,-141.0
2710,-19.0,-143.0
2711,-22.0,-145.0
2712,-21.0,-148.0
2713,-25.0,-150.0
2714,-16.0,-153.0
2715,-23.0,-155.0
2716,-26.0,-157.0
2717,-19.0,-159.0
2718,-20.0,-160.0
2719,-23.0,-161.0
2720,-25.0,-162.0
2721,-22.0,-162.0
2722,-25.0,-162.0
2723,-20.0,-163.0
2724,-16.0,-163.0
2725,-23.0,-164.0
2726,-20.0,-165.0
2727,-16.0,-165.0
2728,-24.0,-166.0
2729,-21.0,-167.0
2730,-17.0,-167.0
2731,-25.0,-167.0
2732,-16.0,-167.0
2733,-27.0,-167.0
2734,-25.0,-166.0
2735,-20.0,-165.0
2736,-25.0,-164.0
2737,-24.0,-162.0
2738,-19.0,-161.0
2739,-21.0,-159.0
2740,-19.0,-158.0
2741,-22.0,-157.0
2742,-22.0,-156.0
2743,-27.0,-156.0
2744,-18.0,-155.0
2745,-19.0,-155.0
2746,-20.0,-154.0
2747,-25.0,-153.0
2748,-29.0,-152.0
2749,-14.0,-150.0
2750,-23.0,-147.0
2751,-24.0,-144.0
2752,-22.0,-142.0
2753,-24.0,-139.0
2754,-21.0,-137.0
2755,-23.0,-135.0
2756,-20.0,-133.0
2757,-16.0,-131.0
2758,-26.0,-130.0
2759,-14.0,-128.0
2760,-22.0,-126.0
2761,-21.0,-123.0
2762,-21.0,-121.0
2763,-19.0,-119.0
2764,-24.0,-116.0
2765,-22.0,-114.0
2766,-23.0,-111.0
2767,-20.0,-108.0
2768,-22.0,-106.0
2769,-25.0,-102.0
2770,-20.0,-99.0
2771,-23.0,-96.0
2772,-25.0,-94.0
2773,-24.0,-91.0
2774,-19.0,-89.0
2775,-22.0,-87.0
2776,-22.0,-86.0
2777,-22.0,-84.0
2778,-29.0,-82.0
2779,-24.0,-80.0
2780,-22.0,-77.0
2781,-29.0,-75.0
2782,-26.0,-72.0
2783,-20.0,-69.0
2784,-20.0,-67.0
2785,-23.0,-64.0
2786,-23.0,-62.0
2787,-26.0,-59.0
2788,-26.0,-57.0
2789,-23.0,-54.0
2790,-21.0,-52.0
2791,-24.0,-51.0
2792,-24.0,-49.0
2793,-16.0,-47.0
2794,-27.0,-45.0
2795,-22.0,-42.0
2796,-25.0,-39.0
2797,-16.0,-36.0
2798,-21.0,-33.0
2799,-23.0,-28.0
2800,-22.0,-26.0
2801,-16.0,-25.0
2802,-19.0,-23.0
2803,-23.0,-21.0
2804,-24.0,-18.0
2805,-19.0,-16.0
2806,-20.0,-13.0
2807,-20.0,6.0
2808,-19.0,7.0
2809,-25.0,8.0
2810,-23.0,9.0
2811,-19.0,11.0
2812,-24.0,12.0
2813,-22.0,14.0
2814,-22.0,15.0
2815,-20.0,16.0
2816,-25.0,17.0
2817,-21.0,18.0
2818,-22.0,18.0
2819,-29.0,19.0
2820,-21.0,20.0
2821,-27.0,21.0
2822,-28.0,23.0
2823,-25.0,24.0
2824,-21.0,25.0
2825,-25.0,26.0
2826,-22.0,26.0
2827,-22.0,27.0
2828,-26.0,27.0
2829,-19.0,28.0
2830,-21.0,28.0
2831,-17.0,28.0
2832,-27.0,28.0
2833,-22.0,28.0
2834,-23.0,28.0
2835,-23.0,29.0
2836,-25.0,30.0
2837,-25.0,31.0
2838,-22.0,32.0
2839,-23.0,34.0
2840,-18.0,35.0
2841,-22.0,37.0
2842,-24.0,37.0
2843,-26.0,38.0
2844,-23.0,38.0
2845,-22.0,37.0
2846,-19.0,36.0
2847,-20.0,35.0
2848,-23.0,35.0
2849,-21.0,36.0
2850,-24.0,36.0
2851,-25.0,37.0
2852,-20.0,38.0
2853,-27.0,38.0
2854,-18.0,38.0
2855,-23.0,39.0
2856,-25.0,39.0
2857,-21.0,39.0
2858,-21.0,39.0
2859,-25.0,39.0
2860,-25.0,39.0
2861,-22.0,38.0
2862,-25.0,37.0
2863,-27.0,36.0
2864,-23.0,36.0
2865,-21.0,35.0
2866,-23.0,35.0
2867,-24.0,35.0
2868,-25.0,35.0
2869,-18.0,35.0
2870,-21.0,35.0
2871,-23.0,35.0
2872,-26.0,34.0
2873,-22.0,33.0
2874,-24.0,33.0
2875,-23.0,32.0
2876,-20.0,32.0
2877,-20.0,31.0
2878,-24.0,32.0
2879,-14.0,32.0
2880,-16.0,33.0
2881,-24.0,33.0
2882,-25.0,32.0
2883,-22.0,31.0
2884,-24.0,30.0
2885,-25.0,29.0
2886,-19.0,29.0
2887,-18.0,29.0
2888,-23.0,30.0
2889,-22.0,30.0
2890,-21.0,30.0
2891,-20.0,24.0
2892,-22.0,23.0
2893,-20.0,22.0
2894,-22.0,21.0
2895,-20.0,20.0
2896,-22.0,19.0
2897,-20.0,18.0
2898,-21.0,18.0
2899,-21.0,18.0
2900,-25.0,18.0
2901,-21.0,18.0
2902,-20.0,19.0
2903,-24.0,19.0
2904,-22.0,19.0
2905,-19.0,19.0
2906,-23.0,17.0
2907,-24.0,16.0
2908,-24.0,15.0
2909,-27.0,14.0
2910,-24.0,13.0
2911,-26.0,13.0
2912,-18.0,12.0
2913,-25.0,12.0
2914,-27.0,7.0
2915,-16.0,7.0
2916,-18.0,8.0
2917,-23.0,7.0
2918,-17.0,7.0
2919,-19.0,6.0
2920,-21.0,6.0
2921,-23.0,5.0
2922,-25.0,5.0
2923,-23.0,5.0
2924,-20.0,5.0
2925,-24.0,5.0
2926,-26.0,5.0
2927,-21.0,6.0
2928,-24.0,7.0
2929,-18.0,7.0
2930,-20.0,7.0
2931,-24.0,7.0
2932,-22.0,7.0
2933,-23.0,6.0
2934,-20.0,4.0
2935,-23.0,3.0
2936,-14.0,1.0
2937,-16.0,0.0
2938,-20.0,2.0
2939,-25.0,1.0
2940,-19.0,0.0
2941,-22.0,0.0
2942,-23.0,-2.0
2943,-19.0,-4.0
2944,-18.0,-5.0
2945,-21.0,-5.0
2946,-29.0,-5.0
2947,-23.0,-4.0
2948,-21.0,-3.0
2949,-18.0,-1.0
2950,-20.0,0.0
2951,-24.0,0.0
2952,-20.0,1.0
2953,-21.0,1.0
2954,-20.0,0.0
2955,-24.0,0.0
2956,-20.0,0.0
2957,-21.0,-1.0
2958,-18.0,-1.0
2959,-25.0,-1.0
2960,-20.0,-2.0
2961,-22.0,-2.0
2962,-20.0,-1.0
2963,-25.0,-1.0
2964,-20.0,-1.0
2965,-22.0,0.0
2966,-25.0,0.0
2967,-20.0,-1.0
2968,-20.0,-1.0
2969,-22.0,-1.0
2970,-22.0,-2.0
2971,-20.0,-2.0
2972,-25.0,-2.0
2973,-24.0,-2.0
2974,-22.0,-2.0
2975,-22.0,-3.0
2976,-24.0,-3.0
2977,-20.0,-3.0
2978,-23.0,-3.0
2979,-20.0,-3.0
2980,-27.0,-3.0
2981,-25.0,-3.0
2982,-22.0,-3.0
2983,-26.0,-3.0
2984,-21.0,-3.0
2985,-19.0,-3.0
2986,-25.0,-4.0
2987,-24.0,-4.0
2988,-22.0,-4.0
2989,-19.0,-4.0
2990,-20.0,-4.0
2991,-25.0,-3.0
2992,-23.0,-3.0
2993,-19.0,-4.0
2994,-20.0,-4.0
2995,-25.0,-4.0
2996,-20.0,-4.0
2997,-21.0,-4.0
2998,-18.0,-3.0
2999,-18.0,-3.0
3000,-23.0,-2.0
3001,-14.0,-2.0
3002,-20.0,-1.0
3003,-16.0,-1.0
3004,-22.0,-1.0
3005,-22.0,-2.0
3006,-26.0,-2.0
3007,-26.0,-2.0
3008,-17.0,-2.0
3009,-20.0,-1.0
3010,-26.0,-1.0
3011,-20.0,0.0
3012,-25.0,0.0
3013,-25.0,0.0
3014,-21.0,0.0
3015,-25.0,0.0
3016,-15.0,0.0
3017,-29.0,-1.0
3018,-22.0,-3.0
3019,-19.0,-4.0
3020,-21.0,-5.0
3021,-25.0,-5.0
3022,-25.0,-5.0
3023,-20.0,-4.0
3024,-27.0,-4.0
3025,-16.0,-3.0
3026,-29.0,-3.0
3027,-24.0,-3.0
3028,-21.0,-3.0
3029,-21.0,-3.0
3030,-25.0,-3.0
3031,-18.0,-2.0
3032,-22.0,-2.0
3033,-20.0,-2.0
3034,-21.0,-2.0
3035,-19.0,-2.0
3036,-16.0,-3.0
3037,-29.0,-3.0
3038,-27.0,-3.0
3039,-26.0,-3.0
3040,-22.0,-2.0
3041,-26.0,-2.0
3042,-18.0,-1.0
3043,-23.0,-1.0
3044,-23.0,0.0
3045,-26.0,0.0
3046,-25.0,0.0
3047,-21.0,0.0
3048,-20.0,0.0
3049,-25.0,0.0
3050,-21.0,-2.0
3051,-23.0,-3.0
3052,-25.0,-4.0
3053,-23.0,-4.0
3054,-20.0,-4.0
3055,-20.0,-3.0
3056,-26.0,-2.0
3057,-22.0,-1.0
3058,-16.0,0.0
3059,-24.0,0.0
3060,-25.0,0.0
3061,-23.0,0.0
3062,-20.0,0.0
3063,-20.0,-1.0
3064,-23.0,-1.0
3065,-26.0,0.0
3066,-24.0,0.0
3067,-20.0,0.0
3068,-29.0,0.0
3069,-17.0,0.0
3070,-23.0,0.0
3071,-26.0,0.0
3072,-29.0,0.0
3073,-26.0,0.0
3074,-28.0,0.0
3075,-23.0,0.0
3076,-22.0,0.0
3077,-20.0,0.0
3078,-22.0,-1.0
3079,-23.0,-1.0
3080,-23.0,-1.0
3081,-21.0,-1.0
3082,-24.0,-1.0
3083,-24.0,-1.0
3084,-21.0,-2.0
3085,-25.0,-2.0
3086,-23.0,-2.0
3087,-16.0,-2.0
3088,-22.0,-2.0
3089,-25.0,0.0
3090,-21.0,0.0
3091,-22.0,1.0
3092,-19.0,2.0
3093,-16.0,2.0
3094,-24.0,1.0
3095,-24.0,1.0
3096,-26.0,0.0
3097,-22.0,0.0
3098,-20.0,0.0
3099,-23.0,0.0
3100,-26.0,0.0
3101,-24.0,1.0
3102,-22.0,1.0
3103,-14.0,2.0
3104,-23.0,2.0
3105,-21.0,2.0
3106,-24.0,1.0
3107,-25.0,1.0
3108,-22.0,0.0
3109,-20.0,0.0
3110,-23.0,-1.0
3111,-17.0,-1.0
3112,-22.0,-1.0
3113,-18.0,0.0
3114,-25.0,0.0
3115,-25.0,0.0
3116,-22.0,1.0
3117,-20.0,1.0
3118,-22.0,1.0
3119,-21.0,1.0
3120,-23.0,0.0
3121,-22.0,0.0
3122,-29.0,0.0
3123,-23.0,0.0
3124,-21.0,1.0
3125,-20.0,0.0
3126,-27.0,0.0
3127,-21.0,0.0
3128,-21.0,0.0
3129,-22.0,0.0
3130,-17.0,0.0
3131,-24.0,0.0
3132,-22.0,0.0
3133,-22.0,0.0
3134,-21.0,-1.0
3135,-14.0,-1.0
3136,-23.0,-1.0
3137,-16.0,-1.0
3138,-22.0,-1.0
3139,-21.0,0.0
3140,-20.0,0.0
3141,-20.0,0.0
3142,-22.0,1.0
3143,-24.0,1.0
3144,-23.0,1.0
3145,-25.0,1.0
3146,-20.0,1.0
3147,-23.0,1.0
3148,-19.0,1.0
3149,-16.0,1.0
3150,-23.0,1.0
3151,-18.0,1.0
3152,-23.0,1.0
3153,-20.0,0.0
3154,-25.0,0.0
3155,-23.0,-1.0
3156,-18.0,-1.0
3157,-27.0,-2.0
3158,-21.0,-2.0
3159,-16.0,-1.0
3160,-22.0,0.0
3161,-19.0,0.0
3162,-18.0,1.0
3163,-22.0,1.0
3164,-23.0,1.0
3165,-25.0,1.0
3166,-24.0,0.0
3167,-22.0,-1.0
3168,-25.0,-1.0
3169,-18.0,-2.0
3170,-16.0,-1.0
3171,-22.0,-1.0
3172,-25.0,0.0
3173,-23.0,0.0
3174,-18.0,1.0
3175,-28.0,1.0
3176,-20.0,0.0
3177,-23.0,0.0
3178,-16.0,-1.0
3179,-19.0,-2.0
3180,-24.0,-2.0
3181,-27.0,-1.0
3182,-25.0,-1.0
3183,-18.0,0.0
3184,-22.0,0.0
3185,-20.0,0.0
3186,-16.0,0.0
3187,-24.0,0.0
3188,-20.0,0.0
3189,-27.0,0.0
3190,-17.0,0.0
3191,-22.0,0.0
3192,-18.0,0.0
3193,-16.0,0.0
3194,-24.0,0.0
3195,-24.0,0.0
3196,-24.0,0.0
3197,-23.0,0.0
3198,-21.0,0.0
3199,-22.0,0.0
3200,-23.0,0.0
3201,-14.0,0.0
3202,-22.0,0.0
3203,-19.0,0.0
3204,-19.0,0.0
3205,-26.0,0.0
3206,-24.0,0.0
3207,-19.0,0.0
3208,-23.0,0.0
3209,-25.0,-1.0
3210,-20.0,-1.0
3211,-22.0,-1.0
3212,-22.0,0.0
3213,-20.0,0.0
3214,-16.0,0.0
3215,-22.0,1.0
3216,-22.0,1.0
3217,-23.0,1.0
3218,-21.0,0.0
3219,-21.0,0.0
3220,-29.0,-1.0
3221,-23.0,-1.0
3222,-24.0,-1.0
3223,-21.0,-1.0
3224,-24.0,0.0
3225,-22.0,0.0
3226,-23.0,1.0
3227,-25.0,1.0
3228,-25.0,1.0
3229,-22.0,1.0
3230,-19.0,0.0
3231,-18.0,0.0
3232,-25.0,-1.0
3233,-26.0,-2.0
3234,-20.0,-2.0
3235,-29.0,-2.0
3236,-21.0,-1.0
3237,1160.0,0.0
3238,1163.0,-4.0
3239,1388.0,-18.0
3240,2047.0,-41.0
3241,2281.0,-56.0
3242,2281.0,-20.0
3243,2283.0,121.0
3244,2283.0,412.0
3245,2286.0,858.0
3246,2284.0,1414.0
3247,2280.0,1999.0
3248,2285.0,2525.0
3249,2282.0,2937.0
3250,2282.0,3241.0
3251,2284.0,4141.0
3252,2280.0,4567.0
3253,2284.0,4968.0
3254,2284.0,5205.0
3255,2279.0,5148.0
3256,1879.0,4732.0
3257,1419.0,3993.0
3258,1181.0,3046.0
3259,1114.0,2043.0
3260,1132.0,1106.0
3261,1156.0,301.0
3262,1168.0,-376.0
3263,1166.0,-975.0
3264,1199.0,-1555.0
3265,1875.0,-2163.0
3266,2284.0,-2826.0
3267,2287.0,-3545.0
3268,2281.0,-4295.0
3269,2286.0,-5029.0
3270,2281.0,-5688.0
3271,2280.0,-6216.0
3272,2287.0,-6615.0
3273,2282.0,-6289.0
3274,2281.0,-5760.0
3275,2283.0,-5086.0
3276,2286.0,-4338.0
3277,2282.0,-3578.0
3278,2283.0,-2841.0
3279,2275.0,-2136.0
3280,1517.0,-1452.0
3281,590.0,-766.0
3282,-23.0,-56.0
3283,-20.0,682.0
3284,-27.0,1420.0
3285,-22.0,2090.0
3286,-22.0,2605.0
3287,-25.0,2876.0
3288,-25.0,2845.0
3289,-23.0,2477.0
3290,-22.0,1761.0
3291,611.0,707.0
3292,2282.0,-636.0
3293,2286.0,-2167.0
3294,2104.0,-6226.0
3295,1589.0,-6872.0
3296,1256.0,-7066.0
3297,1133.0,-6899.0
3298,1114.0,-6502.0
3299,1116.0,-5975.0
3300,1120.0,-5335.0
3301,1144.0,-4520.0
3302,-24.0,5912.0
3303,39.0,5529.0
3304,558.0,4817.0
3305,1181.0,2304.0
3306,1207.0,724.0
3307,1188.0,-804.0
3308,1162.0,-2084.0
3309,1158.0,-2980.0
3310,1166.0,-3448.0
3311,1169.0,-3520.0
3312,1158.0,-3267.0
3313,1154.0,-2761.0
3314,1153.0,-2061.0
3315,1161.0,-1230.0
3316,1167.0,-358.0
3317,1168.0,448.0
3318,1135.0,1084.0
3319,847.0,1484.0
3320,651.0,1655.0
3321,1050.0,1680.0
3322,1503.0,1695.0
3323,1003.0,1835.0
3324,-22.0,2181.0
3325,-26.0,2721.0
3326,-25.0,3357.0
3327,-27.0,3735.0
3328,-16.0,2987.0
3329,-16.0,2096.0
3330,-22.0,1204.0
3331,-27.0,398.0
3332,-20.0,-287.0
3333,137.0,-864.0
3334,1142.0,-1360.0
3335,1640.0,-1795.0
3336,1360.0,-2158.0
3337,906.0,-2402.0
3338,1271.0,-2478.0
3339,2229.0,-2378.0
3340,2067.0,-1895.0
3341,1415.0,-1675.0
3342,1022.0,-1497.0
3343,941.0,-1283.0
3344,396.0,-926.0
3345,-25.0,-349.0
3346,-23.0,459.0
3347,-21.0,1448.0
3348,-24.0,2516.0
3349,-23.0,3532.0
3350,-20.0,4361.0
3351,-22.0,4898.0
3352,-19.0,5095.0
3353,-25.0,4953.0
3354,-16.0,4492.0
3355,-21.0,3754.0
3356,-15.0,2805.0
3357,39.0,1747.0
3358,565.0,694.0
3359,984.0,-252.0
3360,1161.0,-1036.0
3361,1202.0,-1661.0
3362,1186.0,-2185.0
3363,1173.0,-2680.0
3364,1160.0,-3187.0
3365,1146.0,-3684.0
3366,1156.0,-4090.0
3367,1168.0,-4282.0
3368,1168.0,-4134.0
3369,1171.0,-3558.0
3370,1048.0,-2553.0
3371,841.0,-1222.0
3372,1209.0,239.0
3373,1943.0,1602.0
3374,-23.0,3561.0
3375,-19.0,3461.0
3376,-22.0,3171.0
3377,-22.0,2832.0
3378,-23.0,2541.0
3379,-17.0,2343.0
3380,-21.0,2232.0
3381,-18.0,2154.0
3382,-16.0,2020.0
3383,-22.0,1725.0
3384,-20.0,1192.0
3385,-18.0,402.0
3386,-27.0,-589.0
3387,-19.0,-1663.0
3388,-20.0,-2649.0
3389,-21.0,-3370.0
3390,-24.0,-3701.0
3391,-24.0,-3625.0
3392,-25.0,-3246.0
3393,2279.0,-2747.0
3394,2278.0,-2320.0
3395,2127.0,-2244.0
3396,1634.0,-2380.0
3397,1287.0,-2372.0
3398,1148.0,-2153.0
3399,1148.0,-1709.0
3400,1163.0,-1046.0
3401,1179.0,-174.0
3402,1186.0,872.0
3403,1181.0,2021.0
3404,1172.0,3148.0
3405,1170.0,4093.0
3406,1168.0,4682.0
3407,424.0,1554.0
3408,-25.0,998.0
3409,-23.0,869.0
3410,-19.0,1062.0
3411,-23.0,1336.0
3412,-22.0,1423.0
3413,-24.0,1139.0
3414,-25.0,447.0
3415,-20.0,-543.0
3416,-27.0,-1640.0
3417,-18.0,-2640.0
3418,-20.0,-3394.0
3419,-20.0,-3838.0
3420,-20.0,-3985.0
3421,-20.0,-3899.0
3422,-20.0,-3649.0
3423,-21.0,-3290.0
3424,-20.0,-2868.0
3425,-23.0,-2429.0
3426,-25.0,-2030.0
3427,-23.0,-1728.0
3428,-25.0,-1560.0
3429,-23.0,-1525.0
3430,-18.0,-1576.0
3431,-23.0,-1632.0
3432,-21.0,-1092.0
3433,-24.0,-635.0
3434,-27.0,-128.0
3435,-21.0,352.0
3436,-20.0,742.0
3437,-24.0,1004.0
3438,-27.0,1133.0
3439,-22.0,1152.0
3440,-18.0,1099.0
3441,-21.0,1013.0
3442,-25.0,922.0
3443,-24.0,840.0
3444,-21.0,773.0
3445,-20.0,721.0
3446,-29.0,684.0
3447,-26.0,656.0
3448,-21.0,633.0
3449,-23.0,612.0
3450,-21.0,591.0
3451,-25.0,572.0
3452,-18.0,554.0
3453,-16.0,534.0
3454,-23.0,512.0
3455,-21.0,490.0
3456,-26.0,470.0
3457,-20.0,451.0
3458,-19.0,432.0
3459,432.0,414.0
3460,1104.0,397.0
3461,1172.0,383.0
3462,791.0,371.0
3463,671.0,359.0
3464,1098.0,346.0
3465,1597.0,328.0
3466,1569.0,302.0
3467,1153.0,270.0
3468,1018.0,250.0
3469,1449.0,284.0
3470,2100.0,414.0
3471,2276.0,648.0
3472,2097.0,957.0
3473,2120.0,1287.0
3474,2281.0,1581.0
3475,2279.0,1792.0
3476,2284.0,1887.0
3477,2278.0,1755.0
3478,2288.0,1652.0
3479,2284.0,1635.0
3480,2285.0,1745.0
3481,2288.0,1964.0
3482,2286.0,2231.0
3483,2288.0,2460.0
3484,2283.0,2567.0
3485,2287.0,2489.0
3486,2286.0,2207.0
3487,2288.0,1760.0
3488,2286.0,1231.0
3489,2285.0,718.0
3490,2283.0,309.0
3491,2283.0,42.0
3492,2292.0,-95.0
3493,2280.0,-163.0
3494,2286.0,-229.0
3495,2285.0,-345.0
3496,2279.0,-531.0
3497,2283.0,-779.0
3498,2281.0,-1063.0
3499,2283.0,-1744.0
3500,2288.0,-1830.0
3501,2284.0,-1851.0
3502,2288.0,-1827.0
3503,2279.0,-1778.0
3504,2279.0,-1716.0
3505,2271.0,-1653.0
3506,2291.0,-1595.0
3507,2284.0,-1546.0
3508,2279.0,-1504.0
3509,2293.0,-1464.0
3510,2285.0,-1424.0
3511,2286.0,-1383.0
3512,2285.0,-1342.0
3513,2280.0,-1302.0
3514,2292.0,-1261.0
3515,2283.0,-1219.0
3516,2290.0,-1179.0
3517,2282.0,-1142.0
3518,2288.0,-1105.0
3519,2280.0,-1066.0
3520,2283.0,-1024.0
3521,2284.0,-980.0
3522,2282.0,-937.0
3523,2280.0,-897.0
3524,2282.0,-860.0
3525,2285.0,-823.0
3526,2279.0,-790.0
3527,2284.0,-759.0
3528,2288.0,-729.0
3529,2292.0,-697.0
3530,2288.0,-664.0
3531,2281.0,-631.0
3532,2283.0,-572.0
3533,2280.0,-544.0
3534,2286.0,-516.0
3535,2288.0,-489.0
3536,2285.0,-463.0
3537,2283.0,-437.0
3538,2287.0,-410.0
3539,2284.0,-382.0
3540,2168.0,-98.0
3541,1619.0,-84.0
3542,865.0,-43.0
3543,1439.0,-28.0
3544,1453.0,-9.0
3545,954.0,13.0
3546,608.0,44.0
3547,749.0,78.0
3548,996.0,87.0
3549,773.0,19.0
3550,109.0,-181.0
3551,-16.0,-529.0
3552,-22.0,-972.0
3553,81.0,-1406.0
3554,130.0,-1718.0
3555,-22.0,-1829.0
3556,-24.0,-1721.0
3557,-26.0,-1447.0
3558,-23.0,-1127.0
3559,-17.0,-915.0
3560,-24.0,-929.0
3561,-25.0,-1194.0
3562,-25.0,-1621.0
3563,-16.0,-2047.0
3564,-33.0,-2309.0
3565,-28.0,-2299.0
3566,-17.0,-1997.0
3567,-25.0,-1468.0
3568,-25.0,-839.0
3569,-19.0,-249.0
3570,-18.0,194.0
3571,-27.0,444.0
3572,-27.0,516.0
3573,-22.0,480.0
3574,-24.0,428.0
3575,-20.0,441.0
3576,-20.0,555.0
3577,-21.0,762.0
3578,-26.0,1026.0
3579,-20.0,1300.0
3580,-26.0,1546.0
3581,-16.0,1737.0
3582,-21.0,1857.0
3583,-21.0,1910.0
3584,-20.0,1911.0
3585,-23.0,1884.0
3586,-19.0,1845.0
3587,-21.0,1802.0
3588,-25.0,1758.0
3589,-22.0,1717.0
3590,-21.0,1678.0
3591,-21.0,1644.0
3592,-25.0,1609.0
3593,-21.0,1571.0
3594,-25.0,1532.0
3595,-18.0,1493.0
3596,-22.0,1004.0
3597,148.0,967.0
3598,183.0,931.0
3599,-20.0,862.0
3600,258.0,826.0
3601,669.0,791.0
3602,591.0,758.0
3603,135.0,726.0
3604,-16.0,696.0
3605,377.0,671.0
3606,865.0,656.0
3607,823.0,650.0
3608,368.0,647.0
3609,124.0,649.0
3610,410.0,666.0
3611,842.0,709.0
3612,832.0,770.0
3613,395.0,826.0
3614,183.0,859.0
3615,457.0,866.0
3616,875.0,859.0
3617,866.0,842.0
3618,439.0,813.0
3619,213.0,778.0
3620,566.0,752.0
3621,1102.0,742.0
3622,1210.0,735.0
3623,871.0,704.0
3624,663.0,635.0
3625,921.0,539.0
3626,1388.0,440.0
3627,1511.0,348.0
3628,1230.0,258.0
3629,1054.0,166.0
3630,1399.0,83.0
3631,1985.0,572.0
3632,1780.0,666.0
3633,2104.0,717.0
3634,2277.0,712.0
3635,2283.0,649.0
3636,2277.0,534.0
3637,2267.0,380.0
3638,2277.0,214.0
3639,2274.0,64.0
3640,2282.0,-52.0
3641,2276.0,-133.0
3642,2278.0,-187.0
3643,2274.0,-224.0
3644,2282.0,-254.0
3645,2277.0,-383.0
3646,2278.0,-466.0
3647,2277.0,-572.0
3648,2284.0,-687.0
3649,2282.0,-789.0
3650,2268.0,-862.0
3651,2231.0,-903.0
3652,2271.0,-920.0
3653,2277.0,-1471.0
3654,1971.0,-1486.0
3655,1857.0,-1496.0
3656,2218.0,-1502.0
3657,2281.0,-1498.0
3658,2276.0,-1473.0
3659,1912.0,-1421.0
3660,1740.0,-1350.0
3661,2082.0,-1269.0
3662,2280.0,-1192.0
3663,2205.0,-1140.0
3664,1747.0,-1127.0
3665,1530.0,-1154.0
3666,1795.0,-1199.0
3667,1670.0,-1187.0
3668,1429.0,-1118.0
3669,1695.0,-1035.0
3670,2123.0,-952.0
3671,2137.0,-890.0
3672,1681.0,-870.0
3673,1415.0,-895.0
3674,1686.0,-949.0
3675,2166.0,-1000.0
3676,2165.0,-1027.0
3677,1676.0,-1027.0
3678,1409.0,-1005.0
3679,1684.0,-959.0
3680,2159.0,-888.0
3681,2192.0,-802.0
3682,1752.0,-723.0
3683,1428.0,-665.0
3684,1717.0,-626.0
3685,2208.0,-586.0
3686,2209.0,-536.0
3687,1735.0,-482.0
3688,1373.0,-431.0
3689,1837.0,-235.0
3690,1418.0,-151.0
3691,1058.0,-77.0
3692,1165.0,-13.0
3693,1561.0,49.0
3694,1666.0,110.0
3695,1341.0,156.0
3696,1056.0,169.0
3697,1152.0,142.0
3698,1546.0,83.0
3699,1764.0,3.0
3700,1463.0,-92.0
3701,992.0,-198.0
3702,941.0,-296.0
3703,1294.0,-364.0
3704,1509.0,-386.0
3705,1251.0,-366.0
3706,865.0,-323.0
3707,892.0,-274.0
3708,1297.0,-225.0
3709,1512.0,-178.0
3710,1210.0,-140.0
3711,1202.0,-174.0
3712,1480.0,-203.0
3713,1241.0,-212.0
3714,823.0,-190.0
3715,733.0,-130.0
3716,1111.0,-25.0
3717,1418.0,121.0
3718,697.0,534.0
3719,1078.0,559.0
3720,1541.0,583.0
3721,1567.0,616.0
3722,1217.0,656.0
3723,1050.0,695.0
3724,1341.0,730.0
3725,1706.0,761.0
3726,1636.0,779.0
3727,1262.0,771.0
3728,1104.0,734.0
3729,1373.0,684.0
3730,1723.0,657.0
3731,1686.0,680.0
3732,1267.0,760.0
3733,1313.0,1011.0
3734,1684.0,1128.0
3735,1579.0,1200.0
3736,1061.0,1203.0
3737,761.0,1132.0
3738,937.0,1014.0
3739,1310.0,896.0
3740,1290.0,818.0
3741,1272.0,514.0
3742,1494.0,528.0
3743,828.0,406.0
3744,1209.0,327.0
3745,1471.0,259.0
3746,1266.0,210.0
3747,867.0,176.0
3748,842.0,148.0
3749,1190.0,125.0
3750,1395.0,109.0
3751,1161.0,94.0
3752,797.0,66.0
3753,776.0,21.0
3754,1096.0,-28.0
3755,1366.0,-67.0
3756,1176.0,-85.0
3757,763.0,-90.0
3758,739.0,-93.0
3759,1141.0,-96.0
3760,1437.0,-94.0
3761,1269.0,-92.0
3762,845.0,-101.0
3763,555.0,-124.0
3764,734.0,-151.0
3765,1047.0,-164.0
3766,974.0,-156.0
3767,614.0,-132.0
3768,561.0,-106.0
3769,944.0,-78.0
3770,1273.0,-44.0
3771,1167.0,-7.0
3772,750.0,14.0
3773,563.0,-2.0
3774,851.0,-66.0
3775,1235.0,-167.0
3776,1180.0,-283.0
3777,749.0,-391.0
3778,471.0,-462.0
3779,611.0,-465.0
3780,788.0,-380.0
3781,549.0,-223.0
3782,182.0,-47.0
3783,29.0,81.0
3784,342.0,124.0
3785,754.0,82.0
3786,744.0,-18.0
3787,234.0,-138.0
3788,-20.0,-243.0
3789,-20.0,-313.0
3790,-25.0,-341.0
3791,-23.0,-347.0
3792,-24.0,-362.0
3793,-16.0,-405.0
3794,-25.0,-463.0
3795,86.0,-500.0
3796,218.0,-483.0
3797,32.0,-413.0
3798,302.0,171.0
3799,399.0,254.0
3800,112.0,260.0
3801,-19.0,222.0
3802,-26.0,171.0
3803,208.0,134.0
3804,413.0,129.0
3805,208.0,159.0
3806,-22.0,220.0
3807,-18.0,305.0
3808,206.0,412.0
3809,329.0,531.0
3810,129.0,635.0
3811,-25.0,691.0
3812,-20.0,676.0
3813,316.0,595.0
3814,519.0,474.0
3815,285.0,349.0
3816,-19.0,244.0
3817,55.0,176.0
3818,488.0,154.0
3819,793.0,174.0
3820,625.0,218.0
3821,339.0,259.0
3822,1603.0,689.0
3823,1461.0,789.0
3824,1083.0,883.0
3825,1016.0,958.0
3826,1332.0,1014.0
3827,1641.0,1055.0
3828,1501.0,1076.0
3829,1061.0,1063.0
3830,912.0,1010.0
3831,1216.0,927.0
3832,1559.0,839.0
3833,1470.0,761.0
3834,1090.0,695.0
3835,961.0,640.0
3836,1246.0,591.0
3837,1568.0,546.0
3838,1547.0,487.0
3839,1200.0,391.0
3840,1022.0,246.0
3841,1336.0,67.0
3842,1728.0,-116.0
3843,1702.0,-275.0
3844,1329.0,-396.0
3845,1734.0,-433.0
3846,1791.0,-419.0
3847,1452.0,-411.0
3848,1172.0,-413.0
3849,1348.0,-421.0
3850,1732.0,-419.0
3851,1789.0,-399.0
3852,1453.0,-373.0
3853,1156.0,-357.0
3854,1305.0,-362.0
3855,1691.0,-383.0
3856,1779.0,-412.0
3857,1448.0,-449.0
3858,1151.0,-491.0
3859,1783.0,-556.0
3860,1462.0,-544.0
3861,1118.0,-534.0
3862,1236.0,-536.0
3863,1631.0,-543.0
3864,1842.0,-548.0
3865,1578.0,-551.0
3866,1583.0,-381.0
3867,1833.0,-357.0
3868,1143.0,-364.0
3869,1490.0,-380.0
3870,1710.0,-374.0
3871,1487.0,-340.0
3872,1104.0,-291.0
3873,1108.0,-244.0
3874,1461.0,-208.0
3875,1757.0,-184.0
3876,1591.0,-176.0
3877,1166.0,-190.0
3878,1063.0,-225.0
3879,1416.0,-266.0
3880,1705.0,-297.0
3881,1560.0,-312.0
3882,1194.0,-316.0
3883,1099.0,-314.0
3884,1407.0,-301.0
3885,1728.0,-269.0
3886,1645.0,-220.0
3887,1312.0,-169.0
3888,1281.0,-136.0
3889,1679.0,-126.0
3890,1660.0,-175.0
3891,1512.0,-197.0
3892,1784.0,-203.0
3893,2053.0,-178.0
3894,1937.0,-120.0
3895,1496.0,-42.0
3896,1233.0,40.0
3897,1438.0,124.0
3898,1586.0,217.0
3899,1382.0,319.0
3900,956.0,417.0
3901,668.0,489.0
3902,852.0,523.0
3903,1194.0,516.0
3904,1190.0,470.0
3905,849.0,387.0
3906,646.0,276.0
3907,914.0,155.0
3908,1322.0,47.0
3909,1415.0,-39.0
3910,1093.0,-116.0
3911,803.0,-198.0
3912,964.0,-290.0
3913,1357.0,-382.0
3914,1432.0,-458.0
3915,1113.0,-508.0
3916,863.0,-533.0
3917,1034.0,-531.0
3918,1426.0,-500.0
3919,1516.0,-447.0
3920,1204.0,-389.0
3921,909.0,-348.0
3922,1039.0,-329.0
3923,1311.0,-261.0
3924,1050.0,-194.0
3925,1155.0,-97.0
3926,1530.0,35.0
3927,1623.0,198.0
3928,1296.0,367.0
3929,995.0,505.0
3930,1135.0,591.0
3931,1553.0,621.0
3932,1720.0,612.0
3933,1422.0,579.0
3934,1043.0,536.0
3935,1087.0,497.0
3936,1493.0,475.0
3937,1762.0,475.0
3938,1532.0,481.0
3939,1205.0,474.0
3940,1232.0,442.0
3941,1582.0,400.0
3942,1243.0,348.0
3943,1165.0,320.0
3944,1522.0,285.0
3945,1835.0,264.0
3946,1680.0,272.0
3947,1267.0,307.0
3948,1131.0,353.0
3949,1409.0,395.0
3950,1710.0,418.0
3951,1620.0,404.0
3952,1256.0,337.0
3953,1100.0,223.0
3954,1424.0,93.0
3955,1724.0,-10.0
3956,1602.0,-57.0
3957,1233.0,-49.0
3958,1106.0,-8.0
3959,1371.0,40.0
3960,1689.0,77.0
3961,1601.0,82.0
3962,1203.0,46.0
3963,1051.0,-27.0
3964,1301.0,-113.0
3965,1630.0,-177.0
3966,923.0,-52.0
3967,1118.0,-40.0
3968,1556.0,-15.0
3969,1205.0,-10.0
3970,952.0,-26.0
3971,1123.0,-58.0
3972,1454.0,-91.0
3973,1432.0,-108.0
3974,1085.0,-109.0
3975,888.0,-101.0
3976,1145.0,-89.0
3977,1555.0,-70.0
3978,1614.0,-45.0
3979,1268.0,-25.0
3980,931.0,-18.0
3981,1045.0,-27.0
3982,1478.0,-42.0
3983,1607.0,-56.0
3984,1311.0,-71.0
3985,972.0,-89.0
3986,1018.0,-103.0
3987,1370.0,-96.0
3988,1507.0,-54.0
3989,1203.0,11.0
3990,883.0,78.0
3991,992.0,123.0
3992,1368.0,137.0
3993,1473.0,124.0
3994,1206.0,90.0
3995,896.0,42.0
3996,972.0,-4.0
3997,1355.0,-29.0
3998,1539.0,-26.0
3999,1282.0,-2.0
4000,863.0,19.0
4001,869.0,27.0
4002,1277.0,24.0
4003,1579.0,23.0
4004,1410.0,26.0
4005,1054.0,28.0
4006,1080.0,24.0
4007,1469.0,19.0
4008,1764.0,19.0
4009,1628.0,21.0
4010,1276.0,13.0
4011,1205.0,-8.0
4012,1451.0,-34.0
4013,1586.0,-47.0
4014,1327.0,-35.0
4015,887.0,0.0
4016,821.0,51.0
4017,1225.0,122.0
4018,1534.0,209.0
4019,1375.0,298.0
4020,947.0,365.0
4021,822.0,389.0
4022,1113.0,365.0
4023,1396.0,300.0
4024,1254.0,201.0
4025,835.0,75.0
4026,711.0,-60.0
4027,1367.0,-230.0
4028,1300.0,-211.0
4029,907.0,-135.0
4030,736.0,-37.0
4031,1055.0,44.0
4032,1447.0,82.0
4033,1443.0,57.0
4034,1106.0,-37.0
4035,1230.0,163.0
4036,1614.0,193.0
4037,1710.0,231.0
4038,1390.0,268.0
4039,1155.0,286.0
4040,1349.0,284.0
4041,1712.0,274.0
4042,1760.0,266.0
4043,1428.0,261.0
4044,1155.0,250.0
4045,1327.0,230.0
4046,1697.0,208.0
4047,1763.0,189.0
4048,1431.0,173.0
4049,1117.0,157.0
4050,1239.0,144.0
4051,1567.0,142.0
4052,1628.0,152.0
4053,1260.0,157.0
4054,943.0,138.0
4055,1091.0,88.0
4056,1486.0,21.0
4057,1598.0,-41.0
4058,1267.0,-89.0
4059,909.0,-122.0
4060,962.0,-140.0
4061,1346.0,-146.0
4062,1548.0,-144.0
4063,1276.0,-148.0
4064,913.0,-170.0
4065,933.0,-210.0
4066,1268.0,-249.0
4067,1429.0,-267.0
4068,1172.0,-263.0
4069,811.0,-249.0
4070,837.0,-239.0
4071,1192.0,-236.0
4072,1432.0,-238.0
4073,863.0,-258.0
4074,864.0,-277.0
4075,1210.0,-287.0
4076,1456.0,-281.0
4077,1260.0,-262.0
4078,868.0,-247.0
4079,841.0,-243.0
4080,1211.0,-243.0
4081,1494.0,-229.0
4082,1281.0,-195.0
4083,881.0,-149.0
4084,807.0,-102.0
4085,1126.0,-57.0
4086,1378.0,-18.0
4087,1167.0,9.0
4088,839.0,14.0
4089,801.0,-2.0
4090,1134.0,-28.0
4091,1401.0,-41.0
4092,1272.0,-32.0
4093,896.0,-11.0
4094,791.0,9.0
4095,1098.0,22.0
4096,1342.0,28.0
4097,962.0,14.0
4098,811.0,-8.0
4099,1072.0,-25.0
4100,1353.0,-20.0
4101,1276.0,9.0
4102,907.0,49.0
4103,731.0,79.0
4104,991.0,89.0
4105,1367.0,85.0
4106,1316.0,74.0
4107,929.0,57.0
4108,700.0,36.0
4109,936.0,20.0
4110,1340.0,16.0
4111,1363.0,26.0
4112,1021.0,35.0
4113,782.0,32.0
4114,987.0,19.0
4115,1321.0,11.0
4116,1285.0,18.0
4117,928.0,36.0
4118,697.0,51.0
4119,876.0,57.0
4120,1210.0,59.0
4121,1212.0,63.0
4122,885.0,65.0
4123,670.0,61.0
4124,853.0,54.0
4125,1248.0,52.0
4126,1304.0,56.0
4127,947.0,55.0
4128,674.0,35.0
4129,846.0,-2.0
4130,1229.0,-41.0
4131,1317.0,-66.0
4132,995.0,-72.0
4133,687.0,-62.0
4134,807.0,-40.0
4135,1174.0,-5.0
4136,1307.0,39.0
4137,1088.0,78.0
4138,856.0,96.0
4139,984.0,87.0
4140,1390.0,62.0
4141,1564.0,36.0
4142,1329.0,15.0
4143,945.0,-3.0
4144,908.0,-18.0
4145,1228.0,-20.0
4146,1358.0,-2.0
4147,1039.0,32.0
4148,683.0,75.0
4149,741.0,123.0
4150,1149.0,181.0
4151,1399.0,252.0
4152,1159.0,321.0
4153,753.0,363.0
4154,738.0,357.0
4155,1322.0,201.0
4156,1094.0,80.0
4157,687.0,-45.0
4158,669.0,-149.0
4159,1035.0,-199.0
4160,1302.0,-175.0
4161,1115.0,-88.0
4162,753.0,22.0
4163,704.0,116.0
4164,1005.0,162.0
4165,1279.0,152.0
4166,1156.0,86.0
4167,1272.0,-302.0
4168,1126.0,-283.0
4169,764.0,-217.0
4170,705.0,-134.0
4171,1034.0,-54.0
4172,1321.0,10.0
4173,1185.0,51.0
4174,771.0,60.0
4175,659.0,38.0
4176,985.0,1.0
4177,1336.0,-29.0
4178,1234.0,-43.0
4179,853.0,-43.0
4180,697.0,-35.0
4181,988.0,-19.0
4182,1327.0,8.0
4183,1252.0,43.0
4184,871.0,71.0
4185,720.0,77.0
4186,1001.0,65.0
4187,1374.0,47.0
4188,1322.0,33.0
4189,931.0,25.0
4190,755.0,21.0
4191,1005.0,24.0
4192,1334.0,38.0
4193,1319.0,59.0
4194,973.0,74.0
4195,768.0,72.0
4196,991.0,58.0
4197,1387.0,48.0
4198,1395.0,50.0
4199,1029.0,61.0
4200,837.0,70.0
4201,1102.0,72.0
4202,1536.0,71.0
4203,1575.0,68.0
4204,1205.0,59.0
4205,900.0,41.0
4206,1054.0,21.0
4207,1445.0,12.0
4208,1506.0,21.0
4209,1166.0,42.0
4210,888.0,63.0
4211,995.0,81.0
4212,1400.0,103.0
4213,1237.0,161.0
4214,921.0,172.0
4215,1011.0,159.0
4216,1368.0,126.0
4217,1493.0,84.0
4218,1217.0,36.0
4219,913.0,-13.0
4220,1042.0,-55.0
4221,1409.0,-71.0
4222,1559.0,-53.0
4223,1283.0,-10.0
4224,931.0,31.0
4225,984.0,54.0
4226,1351.0,53.0
4227,1568.0,31.0
4228,1339.0,-6.0
4229,982.0,-58.0
4230,1001.0,-111.0
4231,1358.0,-146.0
4232,1574.0,-147.0
4233,1345.0,-119.0
4234,1009.0,-84.0
4235,945.0,-59.0
4236,1072.0,-51.0
4237,1155.0,-52.0
4238,881.0,-58.0
4239,519.0,-70.0
4240,520.0,-83.0
4241,894.0,-87.0
4242,1166.0,-74.0
4243,1017.0,-47.0
4244,675.0,-26.0
4245,623.0,-30.0
4246,943.0,-68.0
4247,1245.0,-140.0
4248,1128.0,-244.0
4249,787.0,-373.0
4250,728.0,-505.0
4251,1058.0,-604.0
4252,1350.0,-631.0
4253,1211.0,-573.0
4254,857.0,-449.0
4255,813.0,-301.0
4256,1357.0,193.0
4257,1028.0,232.0
4258,886.0,228.0
4259,1528.0,136.0
4260,1502.0,88.0
4261,1111.0,54.0
4262,896.0,38.0
4263,1175.0,45.0
4264,1585.0,80.0
4265,1615.0,132.0
4266,1300.0,181.0
4267,1127.0,207.0
4268,1374.0,209.0
4269,1760.0,198.0
4270,1792.0,186.0
4271,1443.0,172.0
4272,1151.0,155.0
4273,1260.0,135.0
4274,1602.0,127.0
4275,1651.0,137.0
4276,1324.0,166.0
4277,1019.0,207.0
4278,1157.0,258.0
4279,1268.0,-30.0
4280,991.0,5.0
4281,1100.0,13.0
4282,1451.0,-6.0
4283,1600.0,-46.0
4284,1314.0,-99.0
4285,984.0,-159.0
4286,1057.0,-217.0
4287,1420.0,-256.0
4288,1577.0,-265.0
4289,1298.0,-248.0
4290,919.0,-221.0
4291,922.0,-191.0
4292,1257.0,-159.0
4293,1483.0,-124.0
4294,1286.0,-92.0
4295,953.0,-73.0
4296,936.0,-73.0
4297,1249.0,-84.0
4298,1453.0,-95.0
4299,1265.0,-103.0
4300,997.0,-117.0
4301,1044.0,-138.0
4302,1390.0,-160.0
4303,1631.0,-172.0
4304,1048.0,-146.0
4305,1434.0,-127.0
4306,1749.0,-102.0
4307,1583.0,-76.0
4308,1196.0,-60.0
4309,1085.0,-56.0
4310,1373.0,-53.0
4311,1666.0,-36.0
4312,1544.0,-2.0
4313,1194.0,35.0
4314,1119.0,63.0
4315,1424.0,80.0
4316,1713.0,92.0
4317,1605.0,103.0
4318,1259.0,111.0
4319,1152.0,112.0
4320,1446.0,110.0
4321,1753.0,110.0
4322,1616.0,110.0
4323,1218.0,104.0
4324,1049.0,88.0
4325,1284.0,72.0
4326,1579.0,71.0
4327,1495.0,89.0
4328,1168.0,113.0
4329,1025.0,128.0
4330,1279.0,128.0
4331,1591.0,116.0
4332,1545.0,95.0
4333,1169.0,61.0
4334,992.0,11.0
4335,1240.0,-46.0
4336,1602.0,-99.0
4337,1630.0,-136.0
4338,1271.0,-155.0
4339,1060.0,-160.0
4340,1259.0,-148.0
4341,1620.0,-115.0
4342,1693.0,-67.0
4343,1376.0,-25.0
4344,1133.0,-7.0
4345,1317.0,-17.0
4346,1681.0,-42.0
4347,1458.0,94.0
4348,1195.0,88.0
4349,1321.0,67.0
4350,1661.0,42.0
4351,1761.0,25.0
4352,1494.0,19.0
4353,1235.0,20.0
4354,1330.0,26.0
4355,1719.0,42.0
4356,1872.0,66.0
4357,1557.0,87.0
4358,1206.0,91.0
4359,1291.0,75.0
4360,1651.0,48.0
4361,1819.0,23.0
4362,1551.0,6.0
4363,1165.0,-4.0
4364,1190.0,-9.0
4365,1590.0,0.0
4366,1806.0,23.0
4367,1580.0,53.0
4368,1203.0,72.0
4369,1186.0,70.0
4370,1516.0,50.0
4371,1757.0,24.0
4372,1603.0,-4.0
4373,1232.0,-36.0
4374,1684.0,-85.0
4375,1464.0,-64.0
4376,1118.0,-40.0
4377,1104.0,-27.0
4378,1488.0,-24.0
4379,1765.0,-26.0
4380,1598.0,-30.0
4381,1192.0,-42.0
4382,1100.0,-64.0
4383,1461.0,-87.0
4384,1777.0,-103.0
4385,1666.0,-113.0
4386,1445.0,-143.0
4387,1761.0,-126.0
4388,1651.0,-85.0
4389,1280.0,-33.0
4390,1190.0,10.0
4391,1541.0,38.0
4392,1911.0,50.0
4393,1884.0,48.0
4394,1541.0,30.0
4395,1392.0,0.0
4396,1650.0,-26.0
4397,1963.0,-35.0
4398,1852.0,-24.0
4399,1416.0,-2.0
4400,1183.0,17.0
4401,1395.0,40.0
4402,1731.0,75.0
4403,1708.0,127.0
4404,1344.0,186.0
4405,1134.0,237.0
4406,1363.0,268.0
4407,1684.0,277.0
4408,1657.0,257.0
4409,1043.0,105.0
4410,1258.0,-7.0
4411,1626.0,-108.0
4412,1645.0,-171.0
4413,1296.0,-188.0
4414,1019.0,-167.0
4415,1149.0,-118.0
4416,1529.0,-55.0
4417,1600.0,2.0
4418,1303.0,30.0
4419,1064.0,12.0
4420,1226.0,-46.0
4421,1614.0,-120.0
4422,1710.0,-181.0
4423,1368.0,-219.0
4424,1042.0,-232.0
4425,1144.0,-226.0
4426,1488.0,-201.0
4427,1605.0,-163.0
4428,1281.0,-123.0
4429,947.0,-91.0
4430,1049.0,-65.0
4431,1336.0,58.0
4432,1003.0,86.0
4433,1076.0,85.0
4434,1415.0,57.0
4435,1556.0,15.0
4436,1292.0,-31.0
4437,991.0,-76.0
4438,1072.0,-108.0
4439,1428.0,-110.0
4440,1572.0,-75.0
4441,1271.0,-14.0
4442,873.0,47.0
4443,905.0,90.0
4444,1292.0,108.0
4445,1504.0,103.0
4446,1263.0,77.0
4447,910.0,33.0
4448,948.0,-13.0
4449,1299.0,-45.0
4450,1502.0,-48.0
4451,1312.0,-27.0
4452,955.0,-3.0
4453,932.0,6.0
4454,1283.0,0.0
4455,1510.0,-11.0
4456,1322.0,-23.0
4457,936.0,-29.0
4458,856.0,-25.0
4459,1176.0,-5.0
4460,1459.0,32.0
4461,1283.0,75.0
4462,893.0,103.0
4463,818.0,105.0
4464,1171.0,86.0
4465,1458.0,64.0
4466,1287.0,47.0
4467,885.0,33.0
4468,772.0,21.0
4469,1088.0,12.0
4470,1407.0,13.0
4471,1302.0,22.0
4472,937.0,32.0
4473,813.0,35.0
4474,1074.0,38.0
4475,1405.0,50.0
4476,1333.0,68.0
4477,913.0,81.0
4478,748.0,77.0
4479,1003.0,59.0
4480,1314.0,39.0
4481,1213.0,25.0
4482,823.0,18.0
4483,654.0,15.0
4484,920.0,22.0
4485,1300.0,42.0
4486,804.0,61.0
4487,989.0,97.0
4488,1343.0,131.0
4489,1407.0,160.0
4490,1085.0,176.0
4491,823.0,169.0
4492,949.0,140.0
4493,1279.0,103.0
4494,1342.0,72.0
4495,1029.0,53.0
4496,718.0,45.0
4497,810.0,50.0
4498,1216.0,76.0
4499,1351.0,120.0
4500,1054.0,167.0
4501,737.0,195.0
4502,851.0,194.0
4503,1287.0,170.0
4504,1439.0,131.0
4505,1161.0,84.0
4506,860.0,29.0
4507,939.0,-25.0
4508,1338.0,-63.0
4509,1514.0,-72.0
4510,1242.0,-56.0
4511,885.0,-27.0
4512,917.0,2.0
4513,1269.0,33.0
4514,1419.0,67.0
4515,1171.0,95.0
4516,844.0,107.0
4517,821.0,102.0
4518,1159.0,90.0
4519,1330.0,84.0
4520,1109.0,85.0
4521,765.0,82.0
4522,767.0,71.0
4523,1114.0,56.0
4524,1352.0,44.0
4525,1154.0,34.0
4526,782.0,21.0
4527,737.0,1.0
4528,1035.0,-17.0
4529,1271.0,-28.0
4530,1120.0,-31.0
4531,782.0,-36.0
4532,714.0,-50.0
4533,1075.0,-65.0
4534,1419.0,-72.0
4535,1311.0,-69.0
4536,969.0,-65.0
4537,962.0,-70.0
4538,1324.0,-83.0
4539,1610.0,-98.0
4540,1382.0,-112.0
4541,919.0,-129.0
4542,767.0,-145.0
4543,988.0,-147.0
4544,1271.0,-120.0
4545,1200.0,-61.0
4546,866.0,16.0
4547,744.0,94.0
4548,1018.0,164.0
4549,1325.0,219.0
4550,1248.0,247.0
4551,841.0,229.0
4552,666.0,156.0
4553,947.0,43.0
4554,1319.0,-80.0
4555,1241.0,-184.0
4556,850.0,-245.0
4557,635.0,-252.0
4558,902.0,-201.0
4559,1296.0,-103.0
4560,1271.0,11.0
4561,907.0,100.0
4562,698.0,128.0
4563,930.0,90.0
4564,1283.0,8.0
4565,1312.0,-84.0
4566,961.0,-167.0
4567,714.0,-224.0
4568,899.0,-244.0
4569,1276.0,-222.0
4570,1287.0,-168.0
4571,955.0,-102.0
4572,704.0,-49.0
4573,881.0,-14.0
4574,1237.0,7.0
4575,1275.0,22.0
4576,930.0,28.0
4577,621.0,20.0
4578,730.0,1.0
4579,1176.0,-16.0
4580,1323.0,-24.0
4581,1007.0,-26.0
4582,702.0,-28.0
4583,813.0,-32.0
4584,1176.0,-31.0
4585,1294.0,-21.0
4586,998.0,-13.0
4587,670.0,-18.0
4588,747.0,-39.0
4589,1105.0,-63.0
4590,1269.0,-75.0
4591,1037.0,-70.0
4592,693.0,-55.0
4593,759.0,-33.0
4594,1145.0,-6.0
4595,1317.0,21.0
4596,1059.0,35.0
4597,732.0,23.0
4598,831.0,-15.0
4599,1227.0,-61.0
4600,1422.0,-93.0
4601,1169.0,-100.0
4602,806.0,-87.0
4603,806.0,-61.0
4604,1137.0,-25.0
4605,1360.0,16.0
4606,1157.0,53.0
4607,1144.0,57.0
4608,1376.0,55.0
4609,1177.0,63.0
4610,835.0,71.0
4611,833.0,71.0
4612,1170.0,61.0
4613,1428.0,46.0
4614,1241.0,29.0
4615,898.0,8.0
4616,820.0,-11.0
4617,1112.0,-19.0
4618,1432.0,-6.0
4619,1331.0,22.0
4620,1461.0,66.0
4621,1351.0,61.0
4622,1015.0,50.0
4623,914.0,30.0
4624,1236.0,7.0
4625,1563.0,-6.0
4626,1463.0,-7.0
4627,1097.0,0.0
4628,951.0,7.0
4629,1211.0,19.0
4630,1529.0,37.0
4631,931.0,-17.0
4632,1148.0,-56.0
4633,1517.0,-77.0
4634,1546.0,-71.0
4635,1181.0,-44.0
4636,953.0,-14.0
4637,1182.0,9.0
4638,1549.0,26.0
4639,1574.0,33.0
4640,1181.0,24.0
4641,909.0,-4.0
4642,1153.0,-45.0
4643,1593.0,-78.0
4644,1722.0,-92.0
4645,1429.0,-88.0
4646,1191.0,-77.0
4647,1339.0,-63.0
4648,1686.0,-43.0
4649,1796.0,-21.0
4650,1486.0,-8.0
4651,1179.0,-13.0
4652,1284.0,-34.0
4653,1638.0,-52.0
4654,1751.0,-50.0
4655,1467.0,-23.0
4656,1171.0,20.0
4657,1607.0,123.0
4658,1760.0,162.0
4659,1504.0,172.0
4660,1191.0,141.0
4661,1282.0,74.0
4662,1676.0,-1.0
4663,1833.0,-60.0
4664,1576.0,-89.0
4665,1207.0,-92.0
4666,1257.0,-75.0
4667,1624.0,-46.0
4668,1839.0,-9.0
4669,1616.0,20.0
4670,1250.0,30.0
4671,1293.0,19.0
4672,1679.0,-1.0
4673,1982.0,-18.0
4674,1824.0,-29.0
4675,1512.0,-41.0
4676,1519.0,-61.0
4677,1876.0,-81.0
4678,2086.0,-95.0
4679,1797.0,-100.0
4680,1276.0,-102.0
4681,1129.0,-101.0
4682,1413.0,-87.0
4683,1632.0,-53.0
4684,1470.0,0.0
4685,1125.0,59.0
4686,1084.0,111.0
4687,1401.0,151.0
4688,1637.0,175.0
4689,1425.0,170.0
4690,1011.0,115.0
4691,902.0,6.0
4692,1189.0,-139.0
4693,1472.0,-287.0
4694,1377.0,-401.0
4695,1042.0,-458.0
4696,933.0,-447.0
4697,1197.0,-369.0
4698,1484.0,-243.0
4699,1387.0,-112.0
4700,1023.0,-25.0
4701,1191.0,-61.0
4702,1590.0,-69.0
4703,1570.0,-80.0
4704,1187.0,-83.0
4705,964.0,-74.0
4706,1159.0,-49.0
4707,1521.0,-5.0
4708,1564.0,50.0
4709,1209.0,98.0
4710,971.0,121.0
4711,1119.0,118.0
4712,1497.0,103.0
4713,1550.0,87.0
4714,1198.0,74.0
4715,912.0,62.0
4716,1446.0,61.0
4717,1535.0,80.0
4718,1210.0,100.0
4719,901.0,109.0
4720,1068.0,105.0
4721,1456.0,97.0
4722,1536.0,93.0
4723,1232.0,89.0
4724,933.0,76.0
4725,1049.0,55.0
4726,1438.0,36.0
4727,1568.0,28.0
4728,1258.0,29.0
4729,927.0,34.0
4730,963.0,39.0
4731,1320.0,51.0
4732,1461.0,71.0
4733,1193.0,91.0
4734,856.0,98.0
4735,912.0,92.0
4736,1265.0,81.0
4737,1427.0,76.0
4738,1137.0,77.0
4739,811.0,75.0
4740,878.0,66.0
4741,1239.0,53.0
4742,1415.0,43.0
4743,1182.0,34.0
4744,827.0,21.0
4745,836.0,6.0
4746,1198.0,0.0
4747,1417.0,8.0
4748,1211.0,26.0
4749,888.0,42.0
4750,882.0,46.0
4751,1222.0,42.0
4752,1448.0,40.0
4753,1211.0,41.0
4754,857.0,40.0
4755,846.0,34.0
4756,1192.0,28.0
4757,1455.0,30.0
4758,1281.0,40.0
4759,894.0,52.0
4760,793.0,61.0
4761,1104.0,73.0
4762,1383.0,91.0
4763,1294.0,111.0
4764,930.0,121.0
4765,824.0,114.0
4766,1088.0,97.0
4767,1384.0,86.0
4768,1289.0,87.0
4769,922.0,94.0
4770,767.0,99.0
4771,1025.0,101.0
4772,1361.0,103.0
4773,1294.0,105.0
4774,781.0,94.0
4775,1034.0,84.0
4776,1345.0,85.0
4777,1306.0,97.0
4778,924.0,106.0
4779,734.0,100.0
4780,999.0,81.0
4781,1373.0,61.0
4782,1363.0,49.0
4783,988.0,46.0
4784,751.0,46.0
4785,985.0,51.0
4786,1360.0,64.0
4787,1389.0,83.0
4788,1059.0,94.0
4789,826.0,87.0
4790,1018.0,68.0
4791,1384.0,51.0
4792,1400.0,48.0
4793,1007.0,55.0
4794,738.0,64.0
4795,916.0,71.0
4796,1288.0,80.0
4797,1366.0,92.0
4798,1037.0,101.0
4799,750.0,100.0
4800,879.0,93.0
4801,1248.0,91.0
4802,1322.0,97.0
4803,999.0,99.0
4804,736.0,85.0
4805,892.0,54.0
4806,1296.0,20.0
4807,1429.0,-2.0
4808,1114.0,-11.0
4809,772.0,-9.0
4810,861.0,0.0
4811,1250.0,16.0
4812,1409.0,36.0
4813,1199.0,46.0
4814,967.0,37.0
4815,1110.0,14.0
4816,1536.0,-5.0
4817,1726.0,-7.0
4818,856.0,312.0
4819,1181.0,250.0
4820,1414.0,140.0
4821,1202.0,8.0
4822,863.0,-117.0
4823,862.0,-207.0
4824,1200.0,-232.0
4825,1434.0,-183.0
4826,1258.0,-82.0
4827,892.0,29.0
4828,837.0,111.0
4829,1174.0,142.0
4830,1466.0,122.0
4831,1321.0,58.0
4832,942.0,-33.0
4833,830.0,-130.0
4834,1114.0,-201.0
4835,1401.0,-225.0
4836,1290.0,-204.0
4837,957.0,-157.0
4838,803.0,-110.0
4839,1081.0,-72.0
4840,1358.0,-45.0
4841,1266.0,-28.0
4842,894.0,-24.0
4843,763.0,-35.0
4844,1340.0,-70.0
4845,1007.0,-74.0
4846,868.0,-83.0
4847,1127.0,-92.0
4848,1467.0,-94.0
4849,1473.0,-86.0
4850,1119.0,-79.0
4851,938.0,-81.0
4852,1184.0,-89.0
4853,1520.0,-91.0
4854,1488.0,-79.0
4855,1142.0,-58.0
4856,922.0,-37.0
4857,1558.0,29.0
4858,1222.0,44.0
4859,962.0,45.0
4860,1134.0,35.0
4861,1518.0,26.0
4862,1568.0,23.0
4863,1272.0,22.0
4864,1006.0,15.0
4865,1168.0,3.0
4866,1463.0,-1.0
4867,1509.0,7.0
4868,1185.0,25.0
4869,930.0,42.0
4870,1078.0,52.0
4871,1440.0,59.0
4872,1515.0,64.0
4873,1219.0,63.0
4874,910.0,48.0
4875,1012.0,23.0
4876,1394.0,-1.0
4877,1521.0,-20.0
4878,1231.0,-36.0
4879,923.0,-59.0
4880,992.0,-86.0
4881,1400.0,-107.0
4882,1571.0,-110.0
4883,1307.0,-97.0
4884,944.0,-82.0
4885,962.0,-70.0
4886,1354.0,-63.0
4887,1550.0,-58.0
4888,1298.0,-59.0
4889,946.0,-72.0
4890,982.0,-92.0
4891,1558.0,-101.0
4892,1344.0,-83.0
4893,986.0,-65.0
4894,988.0,-58.0
4895,1356.0,-58.0
4896,1573.0,-60.0
4897,1354.0,-62.0
4898,1008.0,-70.0
4899,1540.0,-45.0
4900,1390.0,-38.0
4901,1064.0,-29.0
4902,999.0,-27.0
4903,1314.0,-30.0
4904,1613.0,-32.0
4905,1494.0,-29.0
4906,1123.0,-28.0
4907,1002.0,-30.0
4908,1280.0,-30.0
4909,1572.0,-22.0
4910,1512.0,-9.0
4911,1162.0,0.0
4912,1039.0,-2.0
4913,1310.0,-11.0
4914,1644.0,-14.0
4915,1575.0,-4.0
4916,1191.0,9.0
4917,1017.0,19.0
4918,1251.0,22.0
4919,1589.0,22.0
4920,1549.0,19.0
4921,1169.0,11.0
4922,1465.0,-90.0
4923,1513.0,-94.0
4924,1161.0,-88.0
4925,866.0,-80.0
4926,992.0,-67.0
4927,1336.0,-42.0
4928,1441.0,-5.0
4929,1167.0,29.0
4930,951.0,44.0
4931,1170.0,34.0
4932,1615.0,6.0
4933,1749.0,-27.0
4934,1456.0,-62.0
4935,1086.0,-98.0
4936,1084.0,-128.0
4937,1398.0,-142.0
4938,1500.0,-134.0
4939,1193.0,-110.0
4940,847.0,-75.0
4941,935.0,-30.0
4942,1303.0,33.0
4943,1473.0,116.0
4944,1180.0,199.0
4945,848.0,252.0
4946,1282.0,111.0
4947,1524.0,115.0
4948,1306.0,79.0
4949,940.0,14.0
4950,939.0,-58.0
4951,1270.0,-110.0
4952,1515.0,-122.0
4953,1351.0,-97.0
4954,985.0,-53.0
4955,917.0,-8.0
4956,1259.0,29.0
4957,1533.0,58.0
4958,1399.0,73.0
4959,1055.0,71.0
4960,975.0,54.0
4961,1285.0,37.0
4962,1550.0,33.0
4963,1425.0,44.0
4964,1070.0,60.0
4965,974.0,71.0
4966,1313.0,77.0
4967,1615.0,83.0
4968,1489.0,92.0
4969,1088.0,96.0
4970,952.0,94.0
4971,1235.0,89.0
4972,1576.0,89.0
4973,1507.0,93.0
4974,1164.0,93.0
4975,1012.0,83.0
4976,1295.0,70.0
4977,1591.0,65.0
4978,1528.0,72.0
4979,1200.0,81.0
4980,1030.0,83.0
4981,1267.0,75.0
4982,1634.0,64.0
4983,1653.0,57.0
4984,1251.0,51.0
4985,1029.0,47.0
4986,1257.0,47.0
4987,1601.0,60.0
4988,1589.0,81.0
4989,1228.0,96.0
4990,990.0,94.0
4991,1171.0,76.0
4992,1523.0,58.0
4993,1540.0,50.0
4994,1195.0,51.0
4995,961.0,52.0
4996,1151.0,52.0
4997,1532.0,51.0
4998,1607.0,49.0
4999,1263.0,39.0
5000,977.0,16.0
5001,1111.0,-15.0
5002,1472.0,-40.0
5003,1576.0,-50.0
5004,1235.0,-50.0
5005,941.0,-48.0
5006,1079.0,-46.0
5007,1458.0,-38.0
5008,1314.0,-2.0
5009,1039.0,6.0
5010,1141.0,1.0
5011,1493.0,-13.0
5012,1627.0,-30.0
5013,1350.0,-50.0
5014,1040.0,-74.0
5015,1120.0,-97.0
5016,1530.0,-106.0
5017,1699.0,-91.0
5018,1440.0,-58.0
5019,1070.0,-21.0
5020,1095.0,9.0
5021,1467.0,35.0
5022,1703.0,54.0
5023,1480.0,61.0
5024,1095.0,49.0
5025,1087.0,22.0
5026,1460.0,-3.0
5027,1709.0,-14.0
5028,1556.0,-7.0
5029,1186.0,6.0
5030,1158.0,16.0
5031,1499.0,24.0
5032,1699.0,32.0
5033,1493.0,36.0
5034,1133.0,29.0
5035,1115.0,12.0
5036,1466.0,-2.0
5037,1742.0,-2.0
5038,1593.0,10.0
5039,1235.0,27.0
5040,1175.0,39.0
5041,1503.0,45.0
5042,1762.0,47.0
5043,1643.0,43.0
5044,1285.0,23.0
5045,1190.0,-10.0
5046,1472.0,-46.0
5047,1761.0,-63.0
5048,1671.0,-55.0
5049,1351.0,-29.0
5050,1281.0,3.0
5051,1540.0,36.0
5052,1806.0,63.0
5053,1676.0,79.0
5054,1243.0,73.0
5055,1102.0,46.0
5056,1371.0,8.0
5057,1679.0,-20.0
5058,1598.0,-31.0
5059,1199.0,-26.0
5060,1035.0,-12.0
5061,1327.0,8.0
5062,1683.0,34.0
5063,1608.0,56.0
5064,1211.0,56.0
5065,1009.0,26.0
5066,1611.0,-137.0
5067,1280.0,-165.0
5068,1073.0,-174.0
5069,1288.0,-159.0
5070,1655.0,-122.0
5071,1653.0,-75.0
5072,1339.0,-38.0
5073,1184.0,-28.0
5074,1418.0,-45.0
5075,1833.0,-73.0
5076,1913.0,-98.0
5077,1588.0,-115.0
5078,1722.0,-83.0
5079,1720.0,-41.0
5080,1325.0,1.0
5081,997.0,30.0
5082,1152.0,47.0
5083,1567.0,66.0
5084,1678.0,97.0
5085,1368.0,134.0
5086,1066.0,166.0
5087,1154.0,177.0
5088,1497.0,164.0
5089,1626.0,121.0
5090,1367.0,46.0
5091,1067.0,-53.0
5092,1141.0,-155.0
5093,1499.0,-225.0
5094,1635.0,-238.0
5095,1331.0,-196.0
5096,1035.0,-120.0
5097,1150.0,-38.0
5098,1528.0,28.0
5099,1696.0,64.0
5100,1442.0,60.0
5101,1128.0,15.0
5102,1156.0,-53.0
5103,1502.0,-115.0
5104,1679.0,-149.0
5105,1445.0,-151.0
5106,1098.0,-133.0
5107,1135.0,-106.0
5108,1479.0,-71.0
5109,1713.0,-30.0
5110,1172.0,33.0
5111,1080.0,52.0
5112,1422.0,59.0
5113,1733.0,60.0
5114,1603.0,57.0
5115,1221.0,49.0
5116,1093.0,37.0
5117,1397.0,31.0
5118,1661.0,38.0
5119,1548.0,52.0
5120,1202.0,57.0
5121,1112.0,44.0
5122,1457.0,19.0
5123,1792.0,0.0
5124,1649.0,-5.0
5125,1245.0,2.0
5126,1100.0,14.0
5127,1380.0,28.0
5128,1695.0,40.0
5129,1593.0,45.0
5130,1208.0,36.0
5131,1047.0,14.0
5132,1290.0,-3.0
5133,1596.0,-1.0
5134,1551.0,23.0
5135,1191.0,56.0
5136,984.0,78.0
5137,1175.0,81.0
5138,1487.0,66.0
5139,1497.0,38.0
5140,1193.0,0.0
5141,1004.0,-41.0
5142,1184.0,-71.0
5143,1530.0,-79.0
5144,1585.0,-65.0
5145,1239.0,-41.0
5146,992.0,-26.0
5147,1147.0,-25.0
5148,1511.0,-33.0
5149,1579.0,-43.0
5150,1250.0,-53.0
5151,977.0,-62.0
5152,1136.0,-66.0
5153,1495.0,-54.0
5154,1601.0,-27.0
5155,1291.0,5.0
5156,1030.0,24.0
5157,1157.0,26.0
5158,1530.0,17.0
5159,1608.0,5.0
5160,1291.0,-5.0
5161,1038.0,-17.0
5162,1163.0,-25.0
5163,1537.0,-21.0
5164,1674.0,0.0
5165,1385.0,27.0
5166,1043.0,50.0
5167,1115.0,63.0
5168,1468.0,70.0
5169,1644.0,75.0
5170,1383.0,76.0
5171,1050.0,65.0
5172,1080.0,47.0
5173,1426.0,34.0
5174,1591.0,35.0
5175,1365.0,47.0
5176,1050.0,58.0
5177,1055.0,61.0
5178,1410.0,58.0
5179,1625.0,54.0
5180,1385.0,46.0
5181,1031.0,31.0
5182,1056.0,11.0
5183,1418.0,-3.0
5184,1481.0,3.0
5185,1166.0,10.0
5186,1156.0,8.0
5187,1451.0,5.0
5188,1683.0,7.0
5189,1487.0,13.0
5190,1117.0,16.0
5191,1104.0,12.0
5192,1459.0,6.0
5193,1741.0,10.0
5194,1596.0,24.0
5195,1193.0,42.0
5196,1081.0,59.0
5197,1370.0,73.0
5198,1619.0,86.0
5199,1500.0,92.0
5200,1155.0,79.0
5201,1024.0,50.0
5202,1286.0,19.0
5203,1565.0,4.0
5204,1459.0,13.0
5205,1135.0,36.0
5206,1007.0,59.0
5207,1259.0,71.0
5208,1565.0,71.0
5209,1476.0,54.0
5210,1115.0,20.0
5211,935.0,-26.0
5212,1170.0,-69.0
5213,1503.0,-91.0
5214,1513.0,-86.0
5215,1170.0,-68.0
5216,982.0,-49.0
5217,1252.0,-36.0
5218,1663.0,-25.0
5219,1696.0,-17.0
5220,1372.0,-19.0
5221,1212.0,-35.0
5222,1473.0,-59.0
5223,1794.0,-80.0
5224,1706.0,-88.0
5225,1284.0,-84.0
5226,970.0,-72.0
5227,1083.0,-50.0
5228,1429.0,-10.0
5229,1472.0,44.0
5230,1152.0,102.0
5231,907.0,148.0
5232,1120.0,179.0
5233,1502.0,196.0
5234,1563.0,196.0
5235,1217.0,166.0
5236,914.0,97.0
5237,1042.0,-3.0
5238,1432.0,-111.0
5239,1548.0,-199.0
5240,1236.0,-250.0
5241,936.0,-255.0
5242,1044.0,-211.0
5243,1435.0,-124.0
5244,1567.0,-16.0
5245,1287.0,77.0
5246,993.0,123.0
5247,1092.0,109.0
5248,1455.0,51.0
5249,1654.0,-24.0
5250,1388.0,-96.0
5251,1036.0,-150.0
5252,1080.0,-172.0
5253,1432.0,-156.0
5254,1599.0,-106.0
5255,1354.0,-43.0
5256,1041.0,10.0
5257,1066.0,42.0
5258,1408.0,59.0
5259,1604.0,70.0
5260,1391.0,78.0
5261,1054.0,76.0
5262,1061.0,63.0
5263,1419.0,46.0
5264,1434.0,20.0
5265,1092.0,5.0
5266,1076.0,-11.0
5267,1392.0,-19.0
5268,1622.0,-11.0
5269,1450.0,7.0
5270,1088.0,26.0
5271,1015.0,36.0
5272,1352.0,38.0
5273,1621.0,39.0
5274,1450.0,40.0
5275,1069.0,35.0
5276,1194.0,5.0
5277,1069.0,-4.0
5278,1347.0,-15.0
5279,1633.0,-20.0
5280,1545.0,-16.0
5281,1167.0,-14.0
5282,1021.0,-16.0
5283,1281.0,-18.0
5284,1569.0,-9.0
5285,1470.0,11.0
5286,1133.0,35.0
5287,990.0,52.0
5288,1247.0,61.0
5289,1539.0,62.0
5290,1437.0,56.0
5291,1096.0,35.0
5292,930.0,0.0
5293,1219.0,-39.0
5294,1564.0,-65.0
5295,1532.0,-72.0
5296,1167.0,-65.0
5297,944.0,-54.0
5298,1133.0,-42.0
5299,1480.0,-29.0
5300,1486.0,-26.0
5301,1172.0,3.0
5302,1408.0,1.0
5303,1510.0,-21.0
5304,1190.0,-45.0
5305,872.0,-67.0
5306,1016.0,-80.0
5307,1418.0,-74.0
5308,1591.0,-47.0
5309,1302.0,-14.0
5310,1007.0,10.0
5311,1109.0,20.0
5312,1516.0,20.0
5313,1710.0,17.0
5314,1511.0,10.0
5315,1189.0,-2.0
5316,1230.0,-19.0
5317,1572.0,-26.0
5318,1772.0,-16.0
5319,1598.0,8.0
5320,1271.0,36.0
5321,1282.0,64.0
5322,1630.0,92.0
5323,1855.0,124.0
5324,1657.0,154.0
5325,1298.0,171.0
5326,1251.0,172.0
5327,1574.0,165.0
5328,1800.0,158.0
5329,1635.0,152.0
5330,1290.0,141.0
5331,1255.0,125.0
5332,1593.0,113.0
5333,1856.0,114.0
5334,1564.0,17.0
5335,1503.0,19.0
5336,1903.0,8.0
5337,2264.0,-7.0
5338,2216.0,-21.0
5339,1880.0,-34.0
5340,1734.0,-46.0
5341,1958.0,-47.0
5342,2167.0,-30.0
5343,2056.0,3.0
5344,1681.0,41.0
5345,1492.0,75.0
5346,1729.0,108.0
5347,2087.0,146.0
5348,2078.0,189.0
5349,1707.0,228.0
5350,1477.0,246.0
5351,1690.0,239.0
5352,2086.0,207.0
5353,2133.0,148.0
5354,1763.0,63.0
5355,1509.0,-37.0
5356,1662.0,-131.0
5357,2030.0,-187.0
5358,2078.0,-193.0
5359,1735.0,-156.0
5360,2034.0,-5.0
5361,2097.0,12.0
5362,1783.0,0.0
5363,1519.0,-43.0
5364,1674.0,-104.0
5365,2053.0,-160.0
5366,2180.0,-198.0
5367,1879.0,-218.0
5368,1594.0,-229.0
5369,1735.0,-230.0
5370,2085.0,-217.0
5371,2170.0,-187.0
5372,1888.0,-151.0
5373,1620.0,-121.0
5374,1735.0,-104.0
5375,2136.0,-92.0
5376,2247.0,-81.0
5377,1928.0,-73.0
5378,1608.0,-71.0
5379,1771.0,-75.0
5380,2189.0,-78.0
5381,2280.0,-76.0
5382,1736.0,-80.0
5383,1787.0,-90.0
5384,2164.0,-95.0
5385,2278.0,-87.0
5386,2127.0,-71.0
5387,1844.0,-56.0
5388,1890.0,-49.0
5389,2249.0,-43.0
5390,2278.0,-34.0
5391,2265.0,-23.0
5392,2051.0,-16.0
5393,2064.0,-18.0
5394,2278.0,-22.0
5395,2283.0,-24.0
5396,2284.0,-25.0
5397,2268.0,-28.0
5398,2266.0,-33.0
5399,2277.0,-34.0
5400,2282.0,-21.0
5401,2275.0,4.0
5402,2278.0,34.0
5403,2275.0,57.0
5404,2282.0,66.0
5405,2282.0,65.0
5406,2281.0,61.0
5407,2279.0,57.0
5408,2278.0,51.0
5409,2289.0,43.0
5410,2277.0,36.0
5411,2277.0,33.0
5412,2275.0,32.0
5413,2277.0,23.0
5414,2282.0,4.0
5415,2281.0,-16.0
5416,2280.0,-29.0
5417,2279.0,-31.0
5418,2284.0,-27.0
5419,2279.0,-27.0
5420,2282.0,-31.0
5421,2292.0,-36.0
5422,2286.0,-41.0
5423,2290.0,-50.0
5424,2283.0,-64.0
5425,2290.0,-79.0
5426,2283.0,-87.0
5427,2283.0,-87.0
5428,2281.0,-84.0
5429,2281.0,-85.0
5430,2285.0,-80.0
5431,2288.0,-76.0
5432,2284.0,-77.0
5433,2283.0,-80.0
5434,2282.0,-81.0
5435,2286.0,-78.0
5436,2286.0,-76.0
5437,2286.0,-79.0
5438,2286.0,-83.0
5439,2282.0,-82.0
5440,2282.0,-77.0
5441,2288.0,-67.0
5442,2283.0,-62.0
5443,2279.0,-59.0
5444,2283.0,-60.0
5445,2288.0,-62.0
5446,2288.0,-61.0
5447,2279.0,-56.0
5448,2280.0,-52.0
5449,2280.0,-51.0
5450,2286.0,-52.0
5451,2286.0,-50.0
5452,2282.0,-45.0
5453,2285.0,-40.0
5454,2286.0,-38.0
5455,2291.0,-37.0
5456,2281.0,-33.0
5457,2279.0,-28.0
5458,2283.0,-23.0
5459,2285.0,-23.0
5460,2281.0,-24.0
5461,2288.0,-22.0
5462,2282.0,-18.0
5463,2285.0,-14.0
5464,2290.0,-11.0
5465,2286.0,-9.0
5466,2281.0,-5.0
5467,2292.0,0.0
5468,2283.0,3.0
5469,2280.0,3.0
5470,2283.0,2.0
5471,2285.0,2.0
5472,2288.0,6.0
5473,2282.0,31.0
5474,2283.0,32.0
5475,2282.0,34.0
5476,2284.0,38.0
5477,2286.0,41.0
5478,2284.0,42.0
5479,2277.0,42.0
5480,2279.0,43.0
5481,2284.0,46.0
5482,2278.0,49.0
5483,2157.0,50.0
5484,2205.0,50.0
5485,2280.0,51.0
5486,2093.0,54.0
5487,1599.0,56.0
5488,1396.0,56.0
5489,1645.0,56.0
5490,1983.0,57.0
5491,1924.0,59.0
5492,1499.0,58.0
5493,1264.0,55.0
5494,1457.0,50.0
5495,1761.0,41.0
5496,1404.0,12.0
5497,694.0,-52.0
5498,294.0,-157.0
5499,446.0,-279.0
5500,784.0,-384.0
5501,822.0,-443.0
5502,496.0,-445.0
5503,211.0,-392.0
5504,373.0,-294.0
5505,764.0,-189.0
5506,788.0,-133.0
5507,419.0,-179.0
5508,167.0,-340.0
5509,383.0,-574.0
5510,724.0,-812.0
5511,656.0,-984.0
5512,-14.0,-980.0
5513,-22.0,-795.0
5514,-24.0,-537.0
5515,-22.0,-275.0
5516,-21.0,-81.0
5517,-19.0,9.0
5518,-24.0,6.0
5519,-21.0,-50.0
5520,-25.0,-122.0
5521,-23.0,-181.0
5522,-19.0,-217.0
5523,-22.0,287.0
5524,-21.0,322.0
5525,-25.0,377.0
5526,-22.0,440.0
5527,-23.0,499.0
5528,-23.0,543.0
5529,-24.0,568.0
5530,-22.0,578.0
5531,-25.0,579.0
5532,-23.0,577.0
5533,-18.0,573.0
5534,-23.0,567.0
5535,-25.0,561.0
5536,-26.0,558.0
5537,-22.0,557.0
5538,-21.0,555.0
5539,-25.0,551.0
5540,-16.0,546.0
5541,-25.0,542.0
5542,-25.0,539.0
5543,-25.0,535.0
5544,-29.0,529.0
5545,-21.0,521.0
5546,-25.0,514.0
5547,-24.0,400.0
5548,-24.0,389.0
5549,-25.0,377.0
5550,-19.0,367.0
5551,-16.0,357.0
5552,-22.0,346.0
5553,-23.0,333.0
5554,-22.0,318.0
5555,-24.0,303.0
5556,-23.0,290.0
5557,-18.0,278.0
5558,-18.0,264.0
5559,-24.0,250.0
5560,-21.0,237.0
5561,-25.0,227.0
5562,-21.0,203.0
5563,-23.0,190.0
5564,-20.0,178.0
5565,-26.0,165.0
5566,-23.0,152.0
5567,-30.0,137.0
5568,-19.0,123.0
5569,-14.0,110.0
5570,-20.0,99.0
5571,-22.0,88.0
5572,-23.0,76.0
5573,-22.0,64.0
5574,-19.0,52.0
5575,-24.0,40.0
5576,-23.0,29.0
5577,-19.0,16.0
5578,-19.0,4.0
5579,-24.0,-6.0
5580,-25.0,-15.0
5581,-18.0,-23.0
5582,-24.0,-33.0
5583,-18.0,-42.0
5584,-22.0,-52.0
5585,-19.0,-62.0
5586,-22.0,-72.0
5587,-24.0,-83.0
5588,-21.0,-94.0
5589,-22.0,-103.0
5590,-23.0,-110.0
5591,-22.0,-116.0
5592,-14.0,-123.0
5593,-24.0,-130.0
5594,-24.0,-137.0
5595,-20.0,-144.0
5596,-27.0,-150.0
5597,-25.0,-165.0
5598,-20.0,-172.0
5599,-22.0,-178.0
5600,-21.0,-184.0
5601,-16.0,-189.0
5602,-26.0,-194.0
5603,-25.0,-199.0
5604,-25.0,-202.0
5605,-21.0,-206.0
5606,-22.0,-211.0
5607,-22.0,-217.0
5608,-19.0,-221.0
5609,-16.0,-225.0
5610,-16.0,-228.0
5611,-25.0,-230.0
5612,-23.0,-233.0
5613,-24.0,-235.0
5614,-25.0,-237.0
5615,-19.0,-240.0
5616,-20.0,-243.0
5617,-23.0,-247.0
5618,-25.0,-248.0
5619,-21.0,-248.0
5620,-22.0,-247.0
5621,-14.0,-247.0
5622,-21.0,-247.0
5623,-21.0,-248.0
5624,-21.0,-249.0
5625,-29.0,-252.0
5626,-24.0,-254.0
5627,-22.0,-256.0
5628,-20.0,-256.0
5629,-22.0,-254.0
5630,-26.0,-251.0
5631,-22.0,-248.0
5632,-23.0,-246.0
5633,75.0,-244.0
5634,186.0,-243.0
5635,1.0,-243.0
5636,-21.0,-244.0
5637,116.0,-245.0
5638,481.0,-245.0
5639,535.0,-244.0
5640,209.0,-243.0
5641,-12.0,-241.0
5642,232.0,-235.0
5643,612.0,-222.0
5644,710.0,-202.0
5645,397.0,-182.0
5646,134.0,-163.0
5647,293.0,-137.0
5648,679.0,-97.0
5649,781.0,-48.0
5650,506.0,-2.0
5651,256.0,28.0
5652,427.0,42.0
5653,849.0,47.0
5654,994.0,46.0
5655,725.0,35.0
5656,408.0,19.0
5657,470.0,11.0
5658,852.0,21.0
5659,1072.0,43.0
5660,825.0,60.0
5661,509.0,63.0
5662,613.0,60.0
5663,987.0,65.0
5664,646.0,-13.0
5665,681.0,-33.0
5666,1031.0,-61.0
5667,1293.0,-85.0
5668,1083.0,-104.0
5669,685.0,-118.0
5670,681.0,-123.0
5671,1117.0,-119.0
5672,1397.0,-110.0
5673,1184.0,-108.0
5674,806.0,-121.0
5675,783.0,-142.0
5676,1166.0,-160.0
5677,1448.0,-168.0
5678,850.0,-170.0
5679,1207.0,-167.0
5680,1494.0,-157.0
5681,1345.0,-143.0
5682,976.0,-133.0
5683,895.0,-129.0
5684,1226.0,-124.0
5685,1572.0,-117.0
5686,1304.0,-112.0
5687,1192.0,-102.0
5688,1493.0,-90.0
5689,1819.0,-57.0
5690,1472.0,-51.0
5691,1317.0,-58.0
5692,1563.0,-73.0
5693,1840.0,-88.0
5694,1682.0,-97.0
5695,1180.0,-100.0
5696,891.0,-99.0
5697,1018.0,-89.0
5698,1319.0,-68.0
5699,1286.0,-38.0
5700,893.0,-8.0
5701,649.0,13.0
5702,841.0,22.0
5703,1202.0,16.0
5704,1197.0,-12.0
5705,855.0,-74.0
5706,620.0,-174.0
5707,813.0,-302.0
5708,1160.0,-433.0
5709,1176.0,-543.0
5710,835.0,-616.0
5711,552.0,-645.0
5712,1041.0,-501.0
5713,784.0,-434.0
5714,512.0,-397.0
5715,672.0,-394.0
5716,1111.0,-414.0
5717,1384.0,-440.0
5718,1289.0,-465.0
5719,1096.0,-485.0
5720,1185.0,-498.0
5721,1444.0,-499.0
5722,1476.0,-484.0
5723,1208.0,-458.0
5724,1545.0,-206.0
5725,1300.0,-69.0
5726,969.0,85.0
5727,964.0,234.0
5728,1225.0,351.0
5729,1299.0,416.0
5730,1003.0,411.0
5731,600.0,334.0
5732,600.0,211.0
5733,956.0,87.0
5734,1105.0,12.0
5735,875.0,9.0
5736,570.0,73.0
5737,602.0,174.0
5738,956.0,271.0
5739,1158.0,328.0
5740,945.0,318.0
5741,560.0,234.0
5742,580.0,98.0
5743,978.0,-46.0
5744,1232.0,-156.0
5745,1026.0,-205.0
5746,633.0,-196.0
5747,597.0,-143.0
5748,921.0,-64.0
5749,1178.0,17.0
5750,1032.0,81.0
5751,685.0,109.0
5752,601.0,102.0
5753,888.0,75.0
5754,1162.0,52.0
5755,1048.0,46.0
5756,719.0,56.0
5757,626.0,76.0
5758,925.0,103.0
5759,1248.0,135.0
5760,1135.0,167.0
5761,791.0,189.0
5762,687.0,198.0
5763,993.0,202.0
5764,1294.0,210.0
5765,1285.0,226.0
5766,988.0,243.0
5767,899.0,254.0
5768,1234.0,261.0
5769,1602.0,273.0
5770,1573.0,291.0
5771,1228.0,309.0
5772,1134.0,319.0
5773,1425.0,323.0
5774,1828.0,328.0
5775,1833.0,340.0
5776,1495.0,358.0
5777,1329.0,381.0
5778,1576.0,413.0
5779,1915.0,460.0
5780,1915.0,517.0
5781,1529.0,569.0
5782,1317.0,602.0
5783,1556.0,615.0
5784,1895.0,617.0
5785,1874.0,618.0
5786,1535.0,618.0
5787,1346.0,616.0
5788,1540.0,613.0
5789,1906.0,611.0
5790,2010.0,608.0
5791,1760.0,592.0
5792,1522.0,555.0
5793,1666.0,503.0
5794,2052.0,449.0
5795,2143.0,404.0
5796,1823.0,369.0
5797,1537.0,337.0
5798,1707.0,309.0
5799,2101.0,291.0
5800,2200.0,287.0
5801,1891.0,293.0
5802,1554.0,298.0
5803,1682.0,298.0
5804,2057.0,295.0
5805,2152.0,289.0
5806,1852.0,271.0
5807,1507.0,235.0
5808,1566.0,185.0
5809,1950.0,136.0
5810,2081.0,103.0
5811,1850.0,87.0
5812,1547.0,78.0
5813,1610.0,70.0
5814,1972.0,61.0
5815,2106.0,51.0
5816,1834.0,33.0
5817,1505.0,-50.0
5818,1888.0,-101.0
5819,2108.0,-138.0
5820,1894.0,-160.0
5821,1583.0,-172.0
5822,1600.0,-175.0
5823,1930.0,-170.0
5824,2136.0,-157.0
5825,1917.0,-148.0
5826,1593.0,-158.0
5827,1592.0,-191.0
5828,1932.0,-235.0
5829,2124.0,-272.0
5830,1942.0,-288.0
5831,1661.0,-284.0
5832,1650.0,-263.0
5833,2008.0,-228.0
5834,2264.0,-186.0
5835,2043.0,-151.0
5836,1663.0,-140.0
5837,1587.0,-155.0
5838,1976.0,-229.0
5839,1576.0,-229.0
5840,1479.0,-217.0
5841,1776.0,-191.0
5842,2076.0,-153.0
5843,1991.0,-112.0
5844,1606.0,-87.0
5845,1462.0,-89.0
5846,1696.0,-116.0
5847,2025.0,-157.0
5848,1960.0,-201.0
5849,1621.0,-244.0
5850,1455.0,-282.0
5851,1716.0,-303.0
5852,2033.0,-298.0
5853,1982.0,-270.0
5854,1645.0,-236.0
5855,1485.0,-212.0
5856,1783.0,-201.0
5857,2143.0,-200.0
5858,2165.0,-204.0
5859,1849.0,-214.0
5860,1700.0,-231.0
5861,1940.0,-245.0
5862,2233.0,-244.0
5863,2113.0,-225.0
5864,1661.0,-199.0
5865,1376.0,-175.0
5866,1526.0,-156.0
5867,1880.0,-130.0
5868,1917.0,-92.0
5869,1582.0,-46.0
5870,1350.0,0.0
5871,1923.0,93.0
5872,1599.0,72.0
5873,1303.0,4.0
5874,1421.0,-99.0
5875,1738.0,-209.0
5876,1816.0,-293.0
5877,1537.0,-334.0
5878,1290.0,-326.0
5879,1440.0,-273.0
5880,1819.0,-188.0
5881,1903.0,-94.0
5882,1563.0,-24.0
5883,1280.0,-4.0
5884,1411.0,-37.0
5885,1791.0,-104.0
5886,1889.0,-176.0
5887,1634.0,-234.0
5888,1311.0,-266.0
5889,1392.0,-263.0
5890,1790.0,-221.0
5891,1963.0,-148.0
5892,1704.0,-68.0
5893,1696.0,30.0
5894,1914.0,21.0
5895,1662.0,8.0
5896,1309.0,-4.0
5897,1336.0,-10.0
5898,1732.0,0.0
5899,1920.0,31.0
5900,1673.0,71.0
5901,1327.0,101.0
5902,1307.0,113.0
5903,1663.0,109.0
5904,1910.0,99.0
5905,1729.0,86.0
5906,1385.0,69.0
5907,1367.0,51.0
5908,1735.0,47.0
5909,1991.0,62.0
5910,1807.0,91.0
5911,1443.0,116.0
5912,1405.0,127.0
5913,1733.0,124.0
5914,1990.0,118.0
5915,1860.0,113.0
5916,1489.0,108.0
5917,1440.0,107.0
5918,1732.0,116.0
5919,1981.0,142.0
5920,1879.0,176.0
5921,1489.0,203.0
5922,1362.0,212.0
5923,1646.0,207.0
5924,1888.0,197.0
5925,1739.0,190.0
5926,1387.0,183.0
5927,1271.0,175.0
5928,1549.0,172.0
5929,1844.0,178.0
5930,1710.0,191.0
5931,1342.0,197.0
5932,1176.0,187.0
5933,1432.0,164.0
5934,1745.0,135.0
5935,1674.0,106.0
5936,1279.0,75.0
5937,1096.0,42.0
5938,1322.0,15.0
5939,1621.0,5.0
5940,1576.0,10.0
5941,1257.0,20.0
5942,1096.0,22.0
5943,1338.0,14.0
5944,1680.0,2.0
5945,1626.0,-10.0
5946,1242.0,-27.0
5947,1019.0,-49.0
5948,1242.0,-71.0
5949,1579.0,-85.0
5950,1598.0,-86.0
5951,1282.0,-81.0
5952,1024.0,-74.0
5953,1186.0,-62.0
5954,1517.0,-39.0
5955,1554.0,-5.0
5956,1183.0,24.0
5957,964.0,36.0
5958,1102.0,26.0
5959,1472.0,5.0
5960,1511.0,-14.0
5961,1197.0,-28.0
5962,932.0,-35.0
5963,1537.0,10.0
5964,1195.0,30.0
5965,841.0,31.0
5966,987.0,15.0
5967,1437.0,-3.0
5968,1616.0,-12.0
5969,1321.0,-10.0
5970,982.0,-4.0
5971,1069.0,4.0
5972,1419.0,17.0
5973,1566.0,35.0
5974,1325.0,48.0
5975,1008.0,46.0
5976,1418.0,18.0
5977,1591.0,21.0
5978,1314.0,42.0
5979,928.0,72.0
5980,890.0,104.0
5981,1264.0,136.0
5982,1489.0,161.0
5983,1281.0,173.0
5984,948.0,162.0
5985,975.0,135.0
5986,1305.0,110.0
5987,1504.0,101.0
5988,1304.0,107.0
5989,962.0,114.0
5990,947.0,108.0
5991,1266.0,90.0
5992,1503.0,67.0
5993,1303.0,47.0
5994,903.0,33.0
5995,861.0,29.0
5996,1167.0,43.0
5997,1421.0,74.0
5998,1295.0,110.0
5999,951.0,132.0
6000,940.0,129.0
6001,1315.0,106.0
6002,1630.0,79.0
6003,1517.0,56.0
6004,1117.0,35.0
6005,990.0,16.0
6006,1251.0,2.0
6007,1499.0,-1.0
6008,1344.0,4.0
6009,954.0,15.0
6010,817.0,29.0
6011,1071.0,55.0
6012,1375.0,101.0
6013,1328.0,160.0
6014,965.0,212.0
6015,818.0,239.0
6016,1088.0,232.0
6017,1403.0,196.0
6018,1320.0,136.0
6019,947.0,60.0
6020,769.0,-20.0
6021,1008.0,-85.0
6022,1337.0,-115.0
6023,1297.0,-104.0
6024,959.0,-65.0
6025,781.0,-19.0
6026,1001.0,22.0
6027,1295.0,53.0
6028,1259.0,69.0
6029,921.0,60.0
6030,758.0,24.0
6031,1012.0,-25.0
6032,1338.0,-72.0
6033,1340.0,-100.0
6034,962.0,-110.0
6035,721.0,-106.0
6036,933.0,-91.0
6037,1293.0,-67.0
6038,1351.0,-40.0
6039,1010.0,-22.0
6040,763.0,-20.0
6041,932.0,-28.0
6042,1291.0,-33.0
6043,1353.0,-26.0
6044,1040.0,-13.0
6045,1254.0,-8.0
6046,1432.0,-12.0
6047,1171.0,-17.0
6048,906.0,-23.0
6049,1031.0,-26.0
6050,1420.0,-19.0
6051,1567.0,0.0
6052,1293.0,18.0
6053,1022.0,26.0
6054,1097.0,18.0
6055,1448.0,7.0
6056,1578.0,3.0
6057,1343.0,11.0
6058,1068.0,27.0
6059,1157.0,49.0
6060,1536.0,81.0
6061,1704.0,120.0
6062,1428.0,157.0
6063,1075.0,177.0
6064,1126.0,174.0
6065,1491.0,157.0
6066,1696.0,136.0
6067,1419.0,116.0
6068,1027.0,99.0
6069,1024.0,86.0
6070,1383.0,88.0
6071,1605.0,106.0
6072,1409.0,131.0
6073,1040.0,145.0
6074,1019.0,139.0
6075,1369.0,116.0
6076,1609.0,85.0
6077,1391.0,49.0
6078,1019.0,7.0
6079,979.0,-37.0
6080,1308.0,-74.0
6081,1552.0,-96.0
6082,1415.0,-103.0
6083,1059.0,-106.0
6084,981.0,-109.0
6085,1263.0,-110.0
6086,1532.0,-103.0
6087,1378.0,-94.0
6088,979.0,-95.0
6089,902.0,-111.0
6090,1261.0,-136.0
6091,1539.0,-156.0
6092,1355.0,-165.0
6093,960.0,-166.0
6094,867.0,-163.0
6095,1132.0,-156.0
6096,1415.0,-142.0
6097,1320.0,-128.0
6098,948.0,-126.0
6099,790.0,-139.0
6100,1045.0,-157.0
6101,921.0,-157.0
6102,745.0,-154.0
6103,992.0,-156.0
6104,1318.0,-160.0
6105,1270.0,-166.0
6106,900.0,-176.0
6107,705.0,-192.0
6108,954.0,-205.0
6109,1286.0,-207.0
6110,1278.0,-196.0
6111,881.0,-181.0
6112,661.0,-173.0
6113,874.0,-172.0
6114,1244.0,-169.0
6115,1280.0,-162.0
6116,948.0,-154.0
6117,711.0,-152.0
6118,924.0,-153.0
6119,1300.0,-148.0
6120,1351.0,-135.0
6121,1037.0,-121.0
6122,791.0,-114.0
6123,1416.0,-105.0
6124,1072.0,-90.0
6125,802.0,-74.0
6126,929.0,-56.0
6127,1271.0,-30.0
6128,1329.0,3.0
6129,1027.0,36.0
6130,742.0,58.0
6131,863.0,66.0
6132,1252.0,70.0
6133,1372.0,76.0
6134,1065.0,83.0
6135,780.0,83.0
6136,904.0,75.0
6137,1296.0,64.0
6138,1442.0,56.0
6139,1142.0,45.0
6140,787.0,29.0
6141,863.0,10.0
6142,1253.0,0.0
6143,1408.0,5.0
6144,1148.0,22.0
6145,857.0,41.0
6146,919.0,55.0
6147,1338.0,68.0
6148,1583.0,82.0
6149,1397.0,92.0
6150,1106.0,89.0
6151,1177.0,73.0
6152,1542.0,52.0
6153,1732.0,37.0
6154,1463.0,29.0
6155,1056.0,26.0
6156,970.0,30.0
6157,1247.0,48.0
6158,1472.0,89.0
6159,1222.0,145.0
6160,875.0,205.0
6161,896.0,256.0
6162,1245.0,298.0
6163,1456.0,327.0
6164,1292.0,335.0
6165,893.0,309.0
6166,836.0,246.0
6167,1182.0,156.0
6168,1456.0,59.0
6169,889.0,-90.0
6170,801.0,-126.0
6171,1101.0,-124.0
6172,1401.0,-86.0
6173,1282.0,-29.0
6174,940.0,18.0
6175,821.0,36.0
6176,1103.0,21.0
6177,1426.0,-14.0
6178,1293.0,-59.0
6179,903.0,-106.0
6180,734.0,-146.0
6181,1028.0,-169.0
6182,1402.0,-167.0
6183,1349.0,-143.0
6184,945.0,-110.0
6185,753.0,-81.0
6186,1009.0,-57.0
6187,1381.0,-33.0
6188,1350.0,-11.0
6189,1003.0,-3.0
6190,806.0,-15.0
6191,1039.0,-39.0
6192,1367.0,-60.0
6193,1368.0,-68.0
6194,1056.0,-64.0
6195,900.0,-54.0
6196,1130.0,-41.0
6197,1489.0,-22.0
6198,1505.0,0.0
6199,1171.0,14.0
6200,940.0,15.0
6201,1117.0,8.0
6202,1504.0,3.0
6203,1573.0,8.0
6204,1245.0,18.0
6205,1010.0,29.0
6206,1204.0,40.0
6207,1597.0,61.0
6208,1704.0,91.0
6209,1420.0,121.0
6210,1187.0,139.0
6211,1359.0,139.0
6212,1736.0,130.0
6213,1795.0,118.0
6214,1485.0,107.0
6215,1194.0,96.0
6216,1696.0,102.0
6217,1809.0,129.0
6218,1480.0,165.0
6219,1145.0,196.0
6220,1243.0,215.0
6221,1664.0,227.0
6222,1821.0,233.0
6223,1536.0,228.0
6224,1228.0,204.0
6225,1281.0,166.0
6226,1647.0,124.0
6227,1824.0,91.0
6228,1614.0,10.0
6229,1828.0,7.0
6230,1583.0,11.0
6231,1229.0,12.0
6232,1221.0,6.0
6233,1564.0,0.0
6234,1745.0,-5.0
6235,1504.0,-12.0
6236,1139.0,-30.0
6237,1134.0,-60.0
6238,1476.0,-90.0
6239,1723.0,-107.0
6240,1517.0,-110.0
6241,1140.0,-105.0
6242,1117.0,-100.0
6243,1439.0,-97.0
6244,1659.0,-94.0
6245,1466.0,-98.0
6246,1111.0,-117.0
6247,1058.0,-149.0
6248,1380.0,-182.0
6249,1618.0,-200.0
6250,1040.0,-175.0
6251,1359.0,-163.0
6252,1651.0,-152.0
6253,1523.0,-146.0
6254,1135.0,-153.0
6255,1046.0,-173.0
6256,1380.0,-193.0
6257,1695.0,-202.0
6258,1585.0,-195.0
6259,1212.0,-179.0
6260,1077.0,-162.0
6261,1344.0,-144.0
6262,1700.0,-123.0
6263,1647.0,-101.0
6264,1320.0,-85.0
6265,1161.0,-81.0
6266,1391.0,-80.0
6267,1719.0,-73.0
6268,1671.0,-56.0
6269,1343.0,-38.0
6270,1174.0,-25.0
6271,1400.0,-18.0
6272,1304.0,15.0
6273,1058.0,24.0
6274,1268.0,32.0
6275,1621.0,44.0
6276,1613.0,60.0
6277,1267.0,71.0
6278,1028.0,69.0
6279,1206.0,56.0
6280,1569.0,45.0
6281,1630.0,40.0
6282,1284.0,36.0
6283,1039.0,24.0
6284,1209.0,1.0
6285,1584.0,-23.0
6286,1640.0,-44.0
6287,1268.0,-61.0
6288,992.0,-78.0
6289,1185.0,-89.0
6290,1592.0,-87.0
6291,1708.0,-70.0
6292,1405.0,-49.0
6293,1139.0,-36.0
6294,1295.0,-32.0
6295,1888.0,-27.0
6296,1659.0,-26.0
6297,1335.0,-33.0
6298,1360.0,-44.0
6299,1653.0,-49.0
6300,1742.0,-37.0
6301,1394.0,-11.0
6302,988.0,21.0
6303,1044.0,57.0
6304,1466.0,97.0
6305,1678.0,144.0
6306,1437.0,190.0
6307,1078.0,222.0
6308,1099.0,233.0
6309,1436.0,223.0
6310,1664.0,194.0
6311,1460.0,139.0
6312,1136.0,55.0
6313,1179.0,-45.0
6314,1548.0,-133.0
6315,1764.0,-180.0
6316,1514.0,-176.0
6317,1156.0,-130.0
6318,1169.0,-64.0
6319,1576.0,3.0
6320,1802.0,56.0
6321,1582.0,78.0
6322,1207.0,63.0
6323,1187.0,24.0
6324,1513.0,-13.0
6325,1763.0,-29.0
6326,1625.0,-18.0
6327,1284.0,4.0
6328,1247.0,28.0
6329,1560.0,48.0
6330,1805.0,66.0
6331,1674.0,81.0
6332,1299.0,88.0
6333,1201.0,87.0
6334,1504.0,82.0
6335,1828.0,80.0
6336,1705.0,82.0
6337,1336.0,82.0
6338,1234.0,77.0
6339,1584.0,76.0
6340,2042.0,83.0
6341,2106.0,97.0
6342,1842.0,104.0
6343,1730.0,94.0
6344,2034.0,73.0
6345,2278.0,51.0
6346,2269.0,35.0
6347,2016.0,25.0
6348,1910.0,18.0
6349,2202.0,25.0
6350,2279.0,262.0
6351,2283.0,288.0
6352,2277.0,326.0
6353,2281.0,358.0
6354,2284.0,368.0
6355,2288.0,350.0
6356,2280.0,302.0
6357,2277.0,228.0
6358,2282.0,144.0
6359,2282.0,73.0
6360,2281.0,27.0
6361,2262.0,5.0
6362,2271.0,-7.0
6363,2279.0,-20.0
6364,2281.0,-34.0
6365,2175.0,-48.0
6366,1865.0,-65.0
6367,1923.0,-90.0
6368,2245.0,-119.0
6369,2271.0,-144.0
6370,1956.0,-161.0
6371,1544.0,-172.0
6372,1560.0,-183.0
6373,1941.0,-194.0
6374,2076.0,-205.0
6375,1505.0,-313.0
6376,1904.0,-370.0
6377,2119.0,-414.0
6378,1857.0,-446.0
6379,1525.0,-473.0
6380,1580.0,-502.0
6381,1973.0,-529.0
6382,2199.0,-552.0
6383,1969.0,-574.0
6384,1595.0,-598.0
6385,1591.0,-611.0
6386,1957.0,-597.0
6387,2181.0,-548.0
6388,1939.0,-481.0
6389,1590.0,-416.0
6390,1533.0,-365.0
6391,1842.0,-323.0
6392,2056.0,-285.0
6393,1834.0,-253.0
6394,1433.0,-233.0
6395,1383.0,-222.0
6396,1715.0,-210.0
6397,1320.0,-146.0
6398,1229.0,-137.0
6399,1573.0,-132.0
6400,1857.0,-126.0
6401,1710.0,-124.0
6402,1344.0,-134.0
6403,1241.0,-156.0
6404,1537.0,-176.0
6405,1821.0,-187.0
6406,1705.0,-187.0
6407,1361.0,-187.0
6408,1242.0,-193.0
6409,1499.0,-199.0
6410,1796.0,-198.0
6411,1648.0,-191.0
6412,1219.0,-181.0
6413,1055.0,-169.0
6414,1346.0,-150.0
6415,1698.0,-119.0
6416,1647.0,-83.0
6417,1264.0,-53.0
6418,1544.0,-17.0
6419,1583.0,-7.0
6420,1273.0,-6.0
6421,1051.0,-18.0
6422,1246.0,-35.0
6423,1583.0,-44.0
6424,1536.0,-37.0
6425,1134.0,-17.0
6426,910.0,8.0
6427,1150.0,35.0
6428,1505.0,62.0
6429,1515.0,82.0
6430,1194.0,89.0
6431,1001.0,81.0
6432,1272.0,71.0
6433,1680.0,71.0
6434,1729.0,84.0
6435,1353.0,99.0
6436,985.0,103.0
6437,1015.0,95.0
6438,1275.0,83.0
6439,1309.0,79.0
6440,982.0,87.0
6441,725.0,109.0
6442,877.0,151.0
6443,1247.0,216.0
6444,1312.0,294.0
6445,954.0,361.0
6446,602.0,392.0
6447,706.0,372.0
6448,1076.0,303.0
6449,1195.0,200.0
6450,871.0,80.0
6451,546.0,-30.0
6452,631.0,-101.0
6453,892.0,35.0
6454,567.0,119.0
6455,619.0,167.0
6456,991.0,167.0
6457,1185.0,129.0
6458,928.0,66.0
6459,570.0,0.0
6460,595.0,-47.0
6461,919.0,-59.0
6462,1151.0,-30.0
6463,917.0,23.0
6464,553.0,80.0
6465,568.0,125.0
6466,1148.0,186.0
6467,932.0,206.0
6468,600.0,215.0
6469,604.0,213.0
6470,948.0,209.0
6471,1188.0,209.0
6472,1008.0,215.0
6473,633.0,219.0
6474,583.0,220.0
6475,976.0,226.0
6476,1314.0,241.0
6477,1231.0,264.0
6478,951.0,282.0
6479,1025.0,293.0
6480,1508.0,299.0
6481,1944.0,306.0
6482,1889.0,314.0
6483,1580.0,315.0
6484,1498.0,307.0
6485,1819.0,299.0
6486,2178.0,301.0
6487,2057.0,322.0
6488,1679.0,362.0
6489,1576.0,423.0
6490,1888.0,511.0
6491,2178.0,628.0
6492,2065.0,761.0
6493,1648.0,882.0
6494,1536.0,968.0
6495,1780.0,1007.0
6496,2080.0,1000.0
6497,1955.0,955.0
6498,1519.0,880.0
6499,1331.0,791.0
6500,1604.0,709.0
6501,1969.0,654.0
6502,1905.0,625.0
6503,1479.0,607.0
6504,1288.0,583.0
6505,1517.0,542.0
6506,1873.0,484.0
6507,1829.0,410.0
6508,1433.0,317.0
6509,1182.0,209.0
6510,1365.0,99.0
6511,1745.0,5.0
6512,1764.0,-62.0
6513,1367.0,-111.0
6514,1098.0,-147.0
6515,1273.0,-175.0
6516,1657.0,-194.0
6517,1697.0,-211.0
6518,1330.0,-235.0
6519,1015.0,-273.0
6520,1134.0,-321.0
6521,1452.0,-364.0
6522,1413.0,-393.0
6523,623.0,-432.0
6524,960.0,-432.0
6525,1001.0,-424.0
6526,627.0,-415.0
6527,277.0,-416.0
6528,357.0,-431.0
6529,736.0,-454.0
6530,874.0,-486.0
6531,579.0,-533.0
6532,284.0,-604.0
6533,394.0,-692.0
6534,793.0,-781.0
6535,952.0,-852.0
6536,690.0,-898.0
6537,363.0,-921.0
6538,466.0,-921.0
6539,862.0,-897.0
6540,1043.0,-850.0
6541,795.0,-793.0
6542,470.0,-739.0
6543,491.0,-691.0
6544,869.0,-645.0
6545,1066.0,-591.0
6546,802.0,-533.0
6547,431.0,-478.0
6548,415.0,-429.0
6549,769.0,-380.0
6550,1016.0,-323.0
6551,821.0,-260.0
6552,458.0,-200.0
6553,410.0,-148.0
6554,742.0,-101.0
6555,968.0,-55.0
6556,759.0,-17.0
6557,393.0,3.0
6558,324.0,6.0
6559,645.0,0.0
6560,923.0,-2.0
6561,809.0,4.0
6562,421.0,17.0
6563,315.0,30.0
6564,645.0,45.0
6565,982.0,62.0
6566,873.0,77.0
6567,494.0,77.0
6568,345.0,58.0
6569,817.0,14.0
6570,424.0,28.0
6571,305.0,47.0
6572,607.0,72.0
6573,906.0,104.0
6574,804.0,139.0
6575,493.0,166.0
6576,423.0,178.0
6577,723.0,177.0
6578,1065.0,172.0
6579,984.0,168.0
6580,623.0,157.0
6581,397.0,139.0
6582,557.0,119.0
6583,841.0,111.0
6584,781.0,119.0
6585,400.0,139.0
6586,169.0,165.0
6587,371.0,197.0
6588,752.0,239.0
6589,769.0,286.0
6590,415.0,321.0
6591,213.0,329.0
6592,405.0,303.0
6593,746.0,250.0
6594,747.0,179.0
6595,359.0,99.0
6596,59.0,20.0
6597,247.0,-40.0
6598,687.0,-64.0
6599,770.0,-46.0
6600,455.0,0.0
6601,185.0,52.0
6602,321.0,95.0
6603,694.0,122.0
6604,529.0,111.0
6605,265.0,63.0
6606,403.0,0.0
6607,795.0,-53.0
6608,903.0,-75.0
6609,569.0,-63.0
6610,239.0,-25.0
6611,336.0,28.0
6612,724.0,87.0
6613,889.0,143.0
6614,626.0,180.0
6615,265.0,189.0
6616,347.0,179.0
6617,737.0,166.0
6618,921.0,165.0
6619,725.0,174.0
6620,482.0,180.0
6621,594.0,175.0
6622,995.0,162.0
6623,1201.0,150.0
6624,984.0,139.0
6625,723.0,129.0
6626,860.0,121.0
6627,1579.0,160.0
6628,1327.0,183.0
6629,1384.0,205.0
6630,1770.0,233.0
6631,2035.0,272.0
6632,1879.0,316.0
6633,1520.0,353.0
6634,1502.0,376.0
6635,1855.0,398.0
6636,2103.0,433.0
6637,1889.0,489.0
6638,1540.0,564.0
6639,1488.0,646.0
6640,1794.0,727.0
6641,2039.0,794.0
6642,1832.0,829.0
6643,1412.0,817.0
6644,1323.0,759.0
6645,1630.0,673.0
6646,1929.0,587.0
6647,1773.0,513.0
6648,1381.0,453.0
6649,1273.0,401.0
6650,1556.0,356.0
6651,1813.0,314.0
6652,1662.0,268.0
6653,1206.0,203.0
6654,1044.0,116.0
6655,1335.0,18.0
6656,1679.0,-74.0
6657,1527.0,-151.0
6658,1105.0,-213.0
6659,949.0,-264.0
6660,1191.0,-303.0
6661,1425.0,-355.0
6662,1028.0,-392.0
6663,877.0,-450.0
6664,1126.0,-519.0
6665,1427.0,-579.0
6666,1366.0,-620.0
6667,928.0,-644.0
6668,662.0,-654.0
6669,854.0,-656.0
6670,1136.0,-694.0
6671,766.0,-701.0
6672,485.0,-697.0
6673,654.0,-676.0
6674,1037.0,-638.0
6675,1090.0,-589.0
6676,751.0,-544.0
6677,498.0,-517.0
6678,671.0,-505.0
6679,1030.0,-495.0
6680,1119.0,-476.0
6681,855.0,-449.0
6682,591.0,-422.0
6683,735.0,-401.0
6684,686.0,-302.0
6685,1045.0,-268.0
6686,1182.0,-220.0
6687,906.0,-166.0
6688,576.0,-117.0
6689,640.0,-78.0
6690,977.0,-43.0
6691,1103.0,-7.0
6692,840.0,25.0
6693,511.0,45.0
6694,523.0,49.0
6695,870.0,44.0
6696,1094.0,37.0
6697,858.0,32.0
6698,530.0,26.0
6699,532.0,22.0
6700,895.0,25.0
6701,1102.0,40.0
6702,877.0,57.0
6703,496.0,64.0
6704,414.0,55.0
6705,732.0,39.0
6706,998.0,28.0
6707,815.0,28.0
6708,499.0,35.0
6709,543.0,47.0
6710,963.0,66.0
6711,1296.0,93.0
6712,1126.0,120.0
6713,770.0,131.0
6714,710.0,120.0
6715,975.0,94.0
6716,1182.0,65.0
6717,956.0,44.0
6718,512.0,37.0
6719,360.0,50.0
6720,639.0,95.0
6721,925.0,176.0
6722,816.0,281.0
6723,448.0,383.0
6724,282.0,454.0
6725,588.0,482.0
6726,935.0,464.0
6727,858.0,404.0
6728,465.0,307.0
6729,312.0,190.0
6730,606.0,81.0
6731,944.0,7.0
6732,893.0,-19.0
6733,536.0,-7.0
6734,353.0,28.0
6735,594.0,73.0
6736,925.0,121.0
6737,911.0,158.0
6738,581.0,171.0
6739,392.0,156.0
6740,644.0,123.0
6741,999.0,92.0
6742,974.0,76.0
6743,599.0,74.0
6744,405.0,80.0
6745,671.0,94.0
6746,1067.0,117.0
6747,1069.0,148.0
6748,715.0,177.0
6749,462.0,197.0
6750,677.0,211.0
6751,1049.0,228.0
6752,1099.0,249.0
6753,756.0,266.0
6754,527.0,271.0
6755,747.0,267.0
6756,1130.0,263.0
6757,1234.0,267.0
6758,988.0,274.0
6759,805.0,279.0
6760,1026.0,280.0
6761,1463.0,280.0
6762,1621.0,280.0
6763,1372.0,276.0
6764,1145.0,263.0
6765,1329.0,248.0
6766,1755.0,244.0
6767,1900.0,260.0
6768,1592.0,290.0
6769,1313.0,328.0
6770,1507.0,370.0
6771,2032.0,418.0
6772,2264.0,474.0
6773,2056.0,529.0
6774,1740.0,572.0
6775,1783.0,598.0
6776,2102.0,613.0
6777,2227.0,621.0
6778,1899.0,618.0
6779,1514.0,602.0
6780,1488.0,580.0
6781,1743.0,569.0
6782,1825.0,583.0
6783,1527.0,622.0
6784,1144.0,670.0
6785,1160.0,709.0
6786,1546.0,721.0
6787,1758.0,696.0
6788,1521.0,619.0
6789,1138.0,487.0
6790,1103.0,315.0
6791,1460.0,134.0
6792,1708.0,-27.0
6793,1503.0,-156.0
6794,1122.0,-254.0
6795,1101.0,-325.0
6796,1442.0,-370.0
6797,1694.0,-389.0
6798,1503.0,-390.0
6799,1129.0,-391.0
6800,1066.0,-401.0
6801,1390.0,-422.0
6802,1647.0,-449.0
6803,1516.0,-481.0
6804,1177.0,-573.0
6805,1413.0,-566.0
6806,1234.0,-535.0
6807,806.0,-495.0
6808,665.0,-461.0
6809,941.0,-436.0
6810,1277.0,-413.0
6811,1168.0,-393.0
6812,797.0,-383.0
6813,666.0,-387.0
6814,943.0,-406.0
6815,1253.0,-433.0
6816,1188.0,-468.0
6817,850.0,-516.0
6818,695.0,-572.0
6819,944.0,-622.0
6820,1274.0,-645.0
6821,1234.0,-634.0
6822,881.0,-596.0
6823,698.0,-545.0
6824,939.0,-492.0
6825,1311.0,-442.0
6826,1331.0,-399.0
6827,976.0,-373.0
6828,739.0,-364.0
6829,961.0,-363.0
6830,1313.0,-354.0
6831,1359.0,-328.0
6832,1034.0,-293.0
6833,797.0,-257.0
6834,1022.0,-222.0
6835,1400.0,-182.0
6836,1409.0,-136.0
6837,1322.0,-10.0
6838,1355.0,9.0
6839,1007.0,24.0
6840,701.0,31.0
6841,862.0,35.0
6842,1250.0,48.0
6843,1343.0,73.0
6844,1028.0,102.0
6845,733.0,121.0
6846,871.0,125.0
6847,1215.0,117.0
6848,1318.0,103.0
6849,1047.0,81.0
6850,766.0,50.0
6851,851.0,16.0
6852,1180.0,-5.0
6853,1313.0,-6.0
6854,1056.0,9.0
6855,762.0,30.0
6856,869.0,50.0
6857,1242.0,67.0
6858,1407.0,81.0
6859,1172.0,88.0
6860,911.0,81.0
6861,1030.0,64.0
6862,1447.0,48.0
6863,1670.0,44.0
6864,1426.0,49.0
6865,1007.0,58.0
6866,952.0,68.0
6867,1236.0,82.0
6868,1387.0,108.0
6869,1120.0,141.0
6870,799.0,176.0
6871,871.0,209.0
6872,1270.0,248.0
6873,1485.0,296.0
6874,1239.0,346.0
6875,870.0,377.0
6876,1327.0,68.0
6877,921.0,148.0
6878,804.0,204.0
6879,1116.0,221.0
6880,1460.0,198.0
6881,1339.0,145.0
6882,969.0,75.0
6883,894.0,12.0
6884,1197.0,-20.0
