sample,raw,filtered
0,-19.0,-281.0
1,-24.0,-409.0
2,-20.0,-474.0
3,-20.0,-493.0
4,-23.0,-489.0
5,-25.0,-477.0
6,-24.0,-469.0
7,-26.0,-465.0
8,-19.0,-460.0
9,-24.0,-449.0
10,-23.0,-428.0
11,-21.0,-398.0
12,-22.0,-361.0
13,-25.0,-323.0
14,-23.0,-290.0
15,-25.0,-249.0
16,-19.0,-242.0
17,-29.0,-240.0
18,-22.0,-242.0
19,-25.0,-244.0
20,-20.0,-246.0
21,-21.0,-246.0
22,-23.0,-245.0
23,-27.0,-215.0
24,-18.0,-212.0
25,-21.0,-210.0
26,-23.0,-207.0
27,-24.0,-205.0
28,-19.0,-202.0
29,-18.0,-199.0
30,-15.0,-196.0
31,-26.0,-193.0
32,-22.0,-191.0
33,-19.0,-188.0
34,-20.0,-186.0
35,-25.0,-184.0
36,-21.0,-182.0
37,-23.0,-180.0
38,-20.0,-177.0
39,-26.0,-174.0
40,-26.0,-171.0
41,-25.0,-168.0
42,376.0,-164.0
43,915.0,-162.0
44,1214.0,-159.0
45,1270.0,-156.0
46,2338.0,648.0
47,2340.0,788.0
48,2335.0,873.0
49,2340.0,856.0
50,2334.0,866.0
51,2340.0,912.0
52,2335.0,986.0
53,2332.0,1066.0
54,2301.0,1119.0
55,1801.0,1121.0
56,1325.0,1058.0
57,1118.0,940.0
58,1101.0,786.0
59,1131.0,620.0
60,1160.0,464.0
61,1160.0,328.0
62,1172.0,216.0
63,1175.0,121.0
64,1190.0,32.0
65,1163.0,-68.0
66,670.0,-199.0
67,-19.0,-368.0
68,-12.0,-576.0
69,-23.0,-807.0
70,-19.0,-1038.0
71,-23.0,-1242.0
72,-17.0,-1391.0
73,-24.0,-1467.0
74,-22.0,-1470.0
75,-25.0,-1419.0
76,-24.0,-1350.0
77,-27.0,-1299.0
78,-24.0,-1295.0
79,-23.0,-1345.0
80,-29.0,-1439.0
81,-21.0,-1700.0
82,-21.0,-1690.0
83,-23.0,-1618.0
84,-20.0,-1499.0
85,-23.0,-1357.0
86,-23.0,-1213.0
87,-27.0,-1081.0
88,-20.0,-964.0
89,-25.0,-860.0
90,-21.0,-762.0
91,-22.0,-666.0
92,-21.0,-569.0
93,684.0,-474.0
94,1295.0,-382.0
95,1523.0,-300.0
96,1769.0,-229.0
97,2339.0,-172.0
98,2344.0,-127.0
99,2327.0,-92.0
100,2334.0,-67.0
101,2334.0,-47.0
102,2342.0,-24.0
103,2333.0,17.0
104,2337.0,98.0
105,2334.0,235.0
106,2335.0,439.0
107,2340.0,707.0
108,2340.0,1022.0
109,2341.0,1347.0
110,2337.0,1642.0
111,2335.0,1867.0
112,2333.0,1998.0
113,2333.0,2029.0
114,2338.0,1675.0
115,2339.0,1492.0
116,2342.0,1307.0
117,2338.0,1130.0
118,2337.0,962.0
119,2344.0,802.0
120,2339.0,649.0
121,2332.0,504.0
122,2329.0,373.0
123,2340.0,258.0
124,2335.0,164.0
125,2335.0,92.0
126,2340.0,39.0
127,2336.0,2.0
128,2332.0,-22.0
129,2344.0,-41.0
130,2343.0,-58.0
131,2339.0,-75.0
132,2339.0,-92.0
133,2337.0,-111.0
134,2335.0,-130.0
135,2335.0,-149.0
136,2342.0,-167.0
137,2331.0,-183.0
138,2343.0,-198.0
139,2329.0,-211.0
140,2332.0,-222.0
141,2337.0,-232.0
142,2332.0,-242.0
143,2347.0,-250.0
144,2339.0,-258.0
145,2344.0,-265.0
146,2344.0,-271.0
147,2344.0,-277.0
148,2344.0,-291.0
149,2345.0,-294.0
150,2336.0,-296.0
151,2336.0,-297.0
152,2334.0,-298.0
153,2340.0,-297.0
154,2344.0,-295.0
155,2337.0,-293.0
156,2335.0,-289.0
157,2335.0,-286.0
158,2339.0,-282.0
159,2339.0,-279.0
160,2332.0,-266.0
161,2337.0,-263.0
162,2333.0,-259.0
163,2328.0,-254.0
164,2195.0,-249.0
165,1997.0,-243.0
166,2333.0,-237.0
167,2333.0,-231.0
168,2269.0,-224.0
169,1777.0,-218.0
170,1703.0,-210.0
171,2275.0,-202.0
172,2334.0,-194.0
173,2246.0,-188.0
174,1716.0,-186.0
175,1635.0,-191.0
176,2179.0,-198.0
177,2335.0,-207.0
178,2176.0,-219.0
179,1600.0,-237.0
180,1447.0,-259.0
181,1968.0,-279.0
182,2030.0,-298.0
183,1350.0,-300.0
184,1247.0,-297.0
185,1887.0,-286.0
186,2323.0,-263.0
187,2118.0,-238.0
188,1492.0,-219.0
189,1360.0,-209.0
190,1886.0,-202.0
191,2332.0,-192.0
192,2203.0,-183.0
193,1161.0,-189.0
194,1519.0,-194.0
195,2024.0,-186.0
196,2020.0,-167.0
197,1548.0,-143.0
198,1455.0,-116.0
199,1939.0,-81.0
200,2333.0,-32.0
201,2178.0,20.0
202,1425.0,64.0
203,987.0,87.0
204,1367.0,94.0
205,1982.0,90.0
206,1979.0,79.0
207,1415.0,63.0
208,1047.0,51.0
209,1303.0,59.0
210,1768.0,96.0
211,1772.0,156.0
212,1312.0,214.0
213,979.0,250.0
214,1229.0,254.0
215,1669.0,232.0
216,1590.0,192.0
217,1005.0,139.0
218,554.0,86.0
219,657.0,48.0
220,1032.0,34.0
221,967.0,41.0
222,398.0,54.0
223,-21.0,61.0
224,117.0,62.0
225,572.0,62.0
226,601.0,64.0
227,-23.0,46.0
228,-22.0,18.0
229,21.0,-19.0
230,18.0,-66.0
231,-23.0,-128.0
232,-25.0,-204.0
233,-22.0,-283.0
234,-25.0,-352.0
235,-23.0,-400.0
236,-25.0,-426.0
237,-24.0,-433.0
238,-21.0,-424.0
239,-27.0,-401.0
240,-25.0,-368.0
241,-25.0,-330.0
242,-22.0,-290.0
243,-22.0,-244.0
244,-23.0,-187.0
245,-16.0,-118.0
246,-20.0,-38.0
247,-20.0,546.0
248,-23.0,555.0
249,-22.0,559.0
250,-16.0,561.0
251,-28.0,562.0
252,-26.0,561.0
253,-19.0,560.0
254,-17.0,558.0
255,-16.0,556.0
256,-25.0,554.0
257,-27.0,552.0
258,-23.0,549.0
259,-22.0,545.0
260,-24.0,540.0
261,-25.0,534.0
262,-24.0,527.0
263,-20.0,520.0
264,-21.0,512.0
265,-22.0,504.0
266,-25.0,496.0
267,-22.0,488.0
268,-30.0,479.0
269,-25.0,470.0
270,-21.0,459.0
271,-24.0,308.0
272,-24.0,295.0
273,-22.0,283.0
274,-25.0,271.0
275,46.0,258.0
276,495.0,245.0
277,493.0,232.0
278,61.0,219.0
279,-20.0,206.0
280,335.0,193.0
281,807.0,180.0
282,712.0,167.0
283,187.0,153.0
284,-25.0,139.0
285,361.0,133.0
286,820.0,139.0
287,735.0,157.0
288,194.0,184.0
289,-22.0,215.0
290,312.0,247.0
291,841.0,281.0
292,798.0,310.0
293,298.0,326.0
294,1043.0,-55.0
295,1068.0,-68.0
296,594.0,-82.0
297,256.0,-100.0
298,542.0,-119.0
299,1070.0,-130.0
300,1190.0,-133.0
301,712.0,-132.0
302,277.0,-133.0
303,487.0,-134.0
304,991.0,-128.0
305,1111.0,-119.0
306,654.0,-115.0
307,312.0,-121.0
308,1366.0,-156.0
309,1024.0,-165.0
310,702.0,-181.0
311,916.0,-202.0
312,1472.0,-221.0
313,1660.0,-240.0
314,1190.0,-264.0
315,745.0,-297.0
316,2170.0,-89.0
317,1595.0,-125.0
318,1722.0,-236.0
319,2025.0,-231.0
320,1648.0,-204.0
321,1144.0,-164.0
322,1209.0,-118.0
323,1703.0,-70.0
324,1936.0,-27.0
325,1616.0,-5.0
326,1120.0,-18.0
327,1143.0,-65.0
328,1599.0,-133.0
329,1918.0,-208.0
330,1639.0,-284.0
331,1175.0,-356.0
332,1153.0,-416.0
333,1615.0,-456.0
334,1947.0,-476.0
335,1645.0,-488.0
336,1128.0,-505.0
337,1661.0,-512.0
338,1103.0,-515.0
339,1015.0,-521.0
340,1498.0,-522.0
341,1953.0,-514.0
342,1758.0,-499.0
343,1248.0,-485.0
344,1144.0,-477.0
345,1607.0,-469.0
346,2032.0,-457.0
347,1845.0,-443.0
348,1290.0,-434.0
349,1117.0,-430.0
350,1532.0,-423.0
351,1857.0,-209.0
352,1235.0,-178.0
353,972.0,-160.0
354,1380.0,-150.0
355,1931.0,-141.0
356,1871.0,-136.0
357,1327.0,-138.0
358,1029.0,-147.0
359,1395.0,-156.0
360,1897.0,-157.0
361,1826.0,-151.0
362,1272.0,-147.0
363,981.0,-151.0
364,1344.0,-159.0
365,1849.0,-163.0
366,1795.0,-162.0
367,1288.0,-160.0
368,984.0,-160.0
369,1290.0,-155.0
370,1800.0,-139.0
371,1802.0,-116.0
372,1281.0,-96.0
373,928.0,-87.0
374,1221.0,-85.0
375,1732.0,-81.0
376,1236.0,-67.0
377,850.0,-65.0
378,1108.0,-63.0
379,1617.0,-53.0
380,1683.0,-37.0
381,1180.0,-23.0
382,832.0,-18.0
383,1100.0,-17.0
384,1174.0,32.0
385,745.0,42.0
386,933.0,46.0
387,1606.0,64.0
388,1152.0,77.0
389,728.0,87.0
390,856.0,97.0
391,1383.0,114.0
392,1569.0,137.0
393,1156.0,156.0
394,671.0,163.0
395,784.0,162.0
396,1335.0,160.0
397,1576.0,163.0
398,1174.0,168.0
399,695.0,168.0
400,778.0,165.0
401,1210.0,165.0
402,1480.0,172.0
403,1187.0,178.0
404,742.0,177.0
405,787.0,170.0
406,1265.0,168.0
407,1256.0,246.0
408,729.0,255.0
409,695.0,255.0
410,1158.0,248.0
411,1505.0,240.0
412,1259.0,231.0
413,730.0,219.0
414,674.0,210.0
415,1187.0,212.0
416,1547.0,231.0
417,1281.0,259.0
418,726.0,284.0
419,608.0,299.0
420,1075.0,306.0
421,1451.0,309.0
422,1185.0,306.0
423,583.0,295.0
424,475.0,278.0
425,953.0,266.0
426,1358.0,265.0
427,1159.0,271.0
428,645.0,273.0
429,509.0,267.0
430,940.0,256.0
431,1336.0,246.0
432,1138.0,232.0
433,645.0,209.0
434,476.0,176.0
435,904.0,143.0
436,1380.0,119.0
437,1248.0,104.0
438,679.0,92.0
439,453.0,81.0
440,875.0,78.0
441,1380.0,85.0
442,1268.0,98.0
443,758.0,107.0
444,612.0,109.0
445,1079.0,109.0
446,1611.0,115.0
447,1558.0,127.0
448,1074.0,138.0
449,810.0,144.0
450,1126.0,149.0
451,1518.0,158.0
452,1418.0,168.0
453,838.0,174.0
454,499.0,175.0
455,816.0,180.0
456,1296.0,200.0
457,1263.0,234.0
458,784.0,275.0
459,467.0,313.0
460,758.0,347.0
461,1242.0,374.0
462,1191.0,387.0
463,688.0,374.0
464,416.0,330.0
465,751.0,265.0
466,1284.0,192.0
467,884.0,-108.0
468,529.0,-87.0
469,766.0,-66.0
470,1284.0,-39.0
471,1396.0,-10.0
472,943.0,11.0
473,548.0,21.0
474,788.0,23.0
475,1335.0,27.0
476,1423.0,34.0
477,955.0,39.0
478,583.0,37.0
479,789.0,31.0
480,1306.0,30.0
481,1467.0,34.0
482,1017.0,39.0
483,623.0,39.0
484,789.0,36.0
485,1325.0,37.0
486,1481.0,43.0
487,1055.0,48.0
488,611.0,45.0
489,736.0,37.0
490,1262.0,31.0
491,1494.0,31.0
492,1131.0,31.0
493,680.0,26.0
494,769.0,17.0
495,1263.0,13.0
496,1519.0,15.0
497,1183.0,17.0
498,731.0,11.0
499,827.0,-1.0
500,1333.0,-13.0
501,1551.0,-19.0
502,1188.0,-23.0
503,689.0,-31.0
504,742.0,-40.0
505,1276.0,-43.0
506,1559.0,-38.0
507,1122.0,-30.0
508,446.0,-27.0
509,356.0,-29.0
510,775.0,-28.0
511,1042.0,-21.0
512,719.0,-14.0
513,224.0,-14.0
514,219.0,-23.0
515,717.0,-33.0
516,1020.0,-39.0
517,685.0,-48.0
518,205.0,-70.0
519,227.0,-110.0
520,733.0,-162.0
521,1110.0,-224.0
522,850.0,-297.0
523,320.0,-379.0
524,264.0,-460.0
525,744.0,-524.0
526,1137.0,-558.0
527,935.0,-565.0
528,408.0,-555.0
529,312.0,-535.0
530,773.0,-503.0
531,1199.0,-458.0
532,1024.0,-406.0
533,505.0,-355.0
534,372.0,-308.0
535,801.0,-260.0
536,1222.0,-206.0
537,1041.0,-152.0
538,501.0,-108.0
539,354.0,-75.0
540,1048.0,11.0
541,543.0,34.0
542,369.0,49.0
543,793.0,61.0
544,1286.0,76.0
545,1159.0,91.0
546,608.0,98.0
547,356.0,94.0
548,776.0,87.0
549,1287.0,84.0
550,1212.0,84.0
551,673.0,81.0
552,446.0,74.0
553,819.0,68.0
554,1280.0,70.0
555,1219.0,80.0
556,739.0,87.0
557,490.0,89.0
558,836.0,88.0
559,1302.0,92.0
560,1265.0,99.0
561,773.0,103.0
562,490.0,100.0
563,868.0,97.0
564,1334.0,101.0
565,1265.0,110.0
566,769.0,116.0
567,436.0,114.0
568,802.0,109.0
569,1344.0,107.0
570,1344.0,110.0
571,837.0,110.0
572,512.0,103.0
573,793.0,95.0
574,1325.0,92.0
575,836.0,89.0
576,525.0,77.0
577,820.0,60.0
578,1363.0,47.0
579,1429.0,41.0
580,965.0,37.0
581,604.0,29.0
582,866.0,22.0
583,1389.0,21.0
584,1461.0,25.0
585,985.0,25.0
586,630.0,15.0
587,866.0,3.0
588,1379.0,-2.0
589,1434.0,0.0
590,941.0,9.0
591,564.0,16.0
592,770.0,23.0
593,1311.0,34.0
594,1455.0,48.0
595,996.0,57.0
596,616.0,55.0
597,1316.0,38.0
598,1455.0,33.0
599,997.0,24.0
600,550.0,7.0
601,709.0,-15.0
602,1269.0,-36.0
603,1471.0,-50.0
604,1041.0,-63.0
605,616.0,-76.0
606,764.0,-88.0
607,1321.0,-90.0
608,1549.0,-83.0
609,1184.0,-75.0
610,768.0,-77.0
611,974.0,-86.0
612,1584.0,-95.0
613,1937.0,-99.0
614,1631.0,-102.0
615,1136.0,-107.0
616,1107.0,-111.0
617,1521.0,-106.0
618,1704.0,-89.0
619,1323.0,-68.0
620,796.0,-50.0
621,809.0,-32.0
622,1330.0,-4.0
623,1624.0,38.0
624,1353.0,94.0
625,842.0,151.0
626,837.0,202.0
627,1319.0,244.0
628,1624.0,269.0
629,1303.0,266.0
630,781.0,224.0
631,754.0,151.0
632,1217.0,64.0
633,1600.0,-17.0
634,1393.0,-84.0
635,875.0,-136.0
636,783.0,-172.0
637,1245.0,-187.0
638,1652.0,-185.0
639,1431.0,-178.0
640,920.0,-177.0
641,796.0,-187.0
642,1290.0,-199.0
643,1511.0,-203.0
644,989.0,-197.0
645,858.0,-189.0
646,1292.0,-172.0
647,1698.0,-146.0
648,1479.0,-116.0
649,967.0,-94.0
650,879.0,-83.0
651,1352.0,-76.0
652,1786.0,-65.0
653,1589.0,-52.0
654,1028.0,-41.0
655,841.0,-35.0
656,1234.0,-29.0
657,1684.0,-20.0
658,1608.0,-10.0
659,1113.0,-10.0
660,930.0,-18.0
661,1322.0,-27.0
662,1792.0,-27.0
663,1241.0,-2.0
664,973.0,6.0
665,1338.0,9.0
666,1809.0,12.0
667,1748.0,15.0
668,1221.0,14.0
669,908.0,7.0
670,1222.0,1.0
671,1687.0,3.0
672,1692.0,13.0
673,1218.0,20.0
674,892.0,19.0
675,1170.0,14.0
676,1669.0,12.0
677,1675.0,14.0
678,1166.0,10.0
679,814.0,0.0
680,1093.0,-17.0
681,1600.0,-32.0
682,1621.0,-44.0
683,1150.0,-57.0
684,799.0,-75.0
685,1062.0,-92.0
686,1575.0,-100.0
687,1627.0,-99.0
688,1159.0,-97.0
689,784.0,-101.0
690,993.0,-108.0
691,1517.0,-113.0
692,1642.0,-113.0
693,1223.0,-114.0
694,818.0,-119.0
695,1029.0,-124.0
696,1558.0,-120.0
697,1702.0,-108.0
698,1280.0,-95.0
699,834.0,-88.0
700,995.0,-85.0
701,1663.0,-70.0
702,1265.0,-59.0
703,845.0,-54.0
704,970.0,-48.0
705,1481.0,-36.0
706,1661.0,-15.0
707,1277.0,6.0
708,802.0,22.0
709,919.0,29.0
710,1448.0,36.0
711,1662.0,44.0
712,1292.0,48.0
713,844.0,44.0
714,964.0,34.0
715,1497.0,28.0
716,1770.0,29.0
717,1396.0,32.0
718,911.0,30.0
719,995.0,23.0
720,1499.0,18.0
721,884.0,136.0
722,869.0,129.0
723,1389.0,123.0
724,1766.0,122.0
725,1494.0,122.0
726,977.0,116.0
727,901.0,103.0
728,1370.0,90.0
729,1744.0,82.0
730,1516.0,75.0
731,1002.0,62.0
732,916.0,45.0
733,1375.0,31.0
734,1733.0,27.0
735,1501.0,31.0
736,992.0,35.0
737,883.0,37.0
738,1342.0,43.0
739,1724.0,54.0
740,1500.0,67.0
741,924.0,73.0
742,755.0,71.0
743,1221.0,68.0
744,1622.0,70.0
745,912.0,-27.0
746,707.0,-44.0
747,1087.0,-57.0
748,1532.0,-57.0
749,1391.0,-48.0
750,900.0,-39.0
751,683.0,-36.0
752,1078.0,-37.0
753,1636.0,-37.0
754,1690.0,-38.0
755,1277.0,-44.0
756,1075.0,-54.0
757,1400.0,-61.0
758,1807.0,-56.0
759,1675.0,-41.0
760,1066.0,-25.0
761,655.0,-16.0
762,947.0,-9.0
763,1481.0,3.0
764,1503.0,26.0
765,1011.0,57.0
766,708.0,97.0
767,1022.0,147.0
768,1520.0,208.0
769,1515.0,266.0
770,1020.0,300.0
771,643.0,295.0
772,1048.0,23.0
773,712.0,-49.0
774,971.0,-99.0
775,1466.0,-117.0
776,1540.0,-107.0
777,1066.0,-87.0
778,693.0,-73.0
779,899.0,-66.0
780,1464.0,-63.0
781,1571.0,-59.0
782,1118.0,-57.0
783,735.0,-56.0
784,962.0,-51.0
785,1474.0,-34.0
786,1105.0,15.0
787,673.0,28.0
788,864.0,30.0
789,1438.0,30.0
790,1630.0,31.0
791,1187.0,31.0
792,804.0,28.0
793,976.0,25.0
794,1485.0,30.0
795,1606.0,42.0
796,1173.0,52.0
797,775.0,51.0
798,951.0,42.0
799,1417.0,31.0
800,1628.0,26.0
801,1269.0,23.0
802,832.0,21.0
803,931.0,22.0
804,1432.0,33.0
805,1647.0,52.0
806,1266.0,68.0
807,816.0,73.0
808,906.0,67.0
809,1695.0,50.0
810,1362.0,45.0
811,893.0,37.0
812,941.0,30.0
813,1431.0,29.0
814,1690.0,36.0
815,1336.0,43.0
816,846.0,42.0
817,851.0,32.0
818,1369.0,22.0
819,1652.0,18.0
820,1289.0,18.0
821,791.0,16.0
822,794.0,15.0
823,1275.0,19.0
824,1560.0,31.0
825,1220.0,41.0
826,723.0,42.0
827,730.0,31.0
828,1233.0,17.0
829,783.0,-119.0
830,674.0,-122.0
831,1097.0,-123.0
832,1490.0,-116.0
833,1307.0,-105.0
834,772.0,-97.0
835,656.0,-93.0
836,1076.0,-86.0
837,1473.0,-71.0
838,1260.0,-52.0
839,768.0,-37.0
840,615.0,-29.0
841,1025.0,-22.0
842,1428.0,-11.0
843,1242.0,0.0
844,713.0,6.0
845,540.0,4.0
846,962.0,1.0
847,1412.0,1.0
848,1274.0,4.0
849,748.0,3.0
850,499.0,-4.0
851,882.0,-13.0
852,1385.0,-17.0
853,522.0,-18.0
854,836.0,-18.0
855,1310.0,-11.0
856,1276.0,0.0
857,738.0,8.0
858,472.0,7.0
859,793.0,2.0
860,1291.0,1.0
861,1268.0,5.0
862,776.0,9.0
863,499.0,9.0
864,829.0,9.0
865,1346.0,16.0
866,1368.0,27.0
867,857.0,33.0
868,515.0,29.0
869,808.0,20.0
870,1352.0,14.0
871,1438.0,14.0
872,984.0,13.0
873,639.0,10.0
874,891.0,9.0
875,1406.0,17.0
876,1528.0,34.0
877,1060.0,52.0
878,663.0,62.0
879,916.0,68.0
880,1415.0,75.0
881,1484.0,87.0
882,992.0,96.0
883,610.0,100.0
884,822.0,104.0
885,1324.0,115.0
886,1470.0,132.0
887,1014.0,148.0
888,604.0,154.0
889,809.0,153.0
890,1318.0,150.0
891,1451.0,147.0
892,1032.0,137.0
893,622.0,116.0
894,814.0,88.0
895,1337.0,62.0
896,1511.0,42.0
897,1092.0,24.0
898,667.0,5.0
899,800.0,-12.0
900,1321.0,-22.0
901,1542.0,-22.0
902,1150.0,-19.0
903,721.0,-22.0
904,905.0,-26.0
905,1489.0,-26.0
906,1796.0,-18.0
907,1519.0,-7.0
908,1110.0,-2.0
909,1193.0,0.0
910,1588.0,4.0
911,1740.0,12.0
912,1319.0,19.0
913,1221.0,134.0
914,1551.0,57.0
915,1254.0,-16.0
916,739.0,-84.0
917,688.0,-137.0
918,1223.0,-169.0
919,1594.0,-180.0
920,1319.0,-180.0
921,784.0,-183.0
922,722.0,-191.0
923,1216.0,-199.0
924,1583.0,-199.0
925,1322.0,-194.0
926,812.0,-189.0
927,1581.0,-157.0
928,1368.0,-135.0
929,843.0,-117.0
930,728.0,-107.0
931,1192.0,-97.0
932,1604.0,-84.0
933,1398.0,-70.0
934,875.0,-63.0
935,1613.0,-39.0
936,1487.0,-30.0
937,978.0,-25.0
938,796.0,-27.0
939,1171.0,-29.0
940,1601.0,-26.0
941,1491.0,-20.0
942,989.0,-17.0
943,775.0,-21.0
944,1148.0,-25.0
945,1582.0,-23.0
946,1489.0,-16.0
947,995.0,-11.0
948,754.0,-11.0
949,1112.0,-12.0
950,1585.0,-8.0
951,1509.0,-1.0
952,986.0,0.0
953,674.0,-5.0
954,959.0,-13.0
955,1433.0,-17.0
956,1405.0,-16.0
957,888.0,-18.0
958,1427.0,19.0
959,987.0,33.0
960,580.0,40.0
961,738.0,45.0
962,1221.0,53.0
963,1389.0,65.0
964,983.0,75.0
965,580.0,75.0
966,731.0,66.0
967,1256.0,59.0
968,1455.0,58.0
969,1039.0,58.0
970,583.0,56.0
971,704.0,54.0
972,1242.0,58.0
973,1456.0,70.0
974,1072.0,80.0
975,643.0,82.0
976,742.0,78.0
977,1246.0,77.0
978,1466.0,82.0
979,1127.0,90.0
980,667.0,94.0
981,711.0,94.0
982,1211.0,97.0
983,1485.0,104.0
984,659.0,109.0
985,697.0,104.0
986,1213.0,103.0
987,1495.0,109.0
988,1180.0,117.0
989,697.0,119.0
990,700.0,115.0
991,1182.0,111.0
992,809.0,81.0
993,735.0,75.0
994,1190.0,71.0
995,1296.0,82.0
996,742.0,88.0
997,640.0,88.0
998,1092.0,91.0
999,1534.0,98.0
1000,1354.0,106.0
1001,789.0,106.0
1002,675.0,96.0
1003,1111.0,83.0
1004,1522.0,73.0
1005,1338.0,65.0
1006,821.0,49.0
1007,651.0,26.0
1008,1093.0,3.0
1009,1548.0,-12.0
1010,1400.0,-21.0
1011,850.0,-29.0
1012,664.0,-37.0
1013,1073.0,-40.0
1014,1527.0,-34.0
1015,1440.0,-22.0
1016,971.0,-16.0
1017,856.0,-18.0
1018,1816.0,-15.0
1019,1303.0,-12.0
1020,1037.0,-14.0
1021,1322.0,-17.0
1022,1682.0,-14.0
1023,1536.0,-7.0
1024,996.0,-3.0
1025,687.0,0.0
1026,1047.0,10.0
1027,1563.0,38.0
1028,1517.0,85.0
1029,981.0,139.0
1030,663.0,189.0
1031,991.0,228.0
1032,1516.0,254.0
1033,1500.0,256.0
1034,1009.0,224.0
1035,682.0,158.0
1036,964.0,72.0
1037,1451.0,-11.0
1038,1468.0,-82.0
1039,1023.0,-138.0
1040,709.0,-180.0
1041,1000.0,-205.0
1042,1165.0,-79.0
1043,767.0,-71.0
1044,1552.0,-62.0
1045,1134.0,-58.0
1046,784.0,-58.0
1047,1002.0,-58.0
1048,1513.0,-51.0
1049,1646.0,-36.0
1050,1201.0,-20.0
1051,804.0,-10.0
1052,1000.0,-6.0
1053,1561.0,0.0
1054,1734.0,7.0
1055,1316.0,10.0
1056,884.0,3.0
1057,1034.0,-6.0
1058,1567.0,-11.0
1059,1757.0,-6.0
1060,1336.0,1.0
1061,902.0,7.0
1062,1056.0,9.0
1063,1594.0,16.0
1064,1852.0,29.0
1065,1464.0,41.0
1066,996.0,46.0
1067,1094.0,48.0
1068,1618.0,52.0
1069,1867.0,61.0
1070,1458.0,67.0
1071,939.0,64.0
1072,987.0,55.0
1073,1491.0,48.0
1074,1726.0,49.0
1075,1375.0,53.0
1076,883.0,56.0
1077,927.0,56.0
1078,1418.0,60.0
1079,1711.0,69.0
1080,1370.0,74.0
1081,856.0,68.0
1082,882.0,48.0
1083,1382.0,24.0
1084,1692.0,1.0
1085,1362.0,-22.0
1086,841.0,-51.0
1087,821.0,-83.0
1088,1339.0,-107.0
1089,1668.0,-118.0
1090,1388.0,-121.0
1091,859.0,-124.0
1092,833.0,-130.0
1093,1345.0,-130.0
1094,1686.0,-123.0
1095,1391.0,-114.0
1096,886.0,-109.0
1097,823.0,-111.0
1098,1264.0,-110.0
1099,1631.0,-103.0
1100,1428.0,-92.0
1101,949.0,-85.0
1102,849.0,-82.0
1103,1268.0,-77.0
1104,1656.0,-63.0
1105,1416.0,-47.0
1106,887.0,-36.0
1107,755.0,-34.0
1108,1192.0,-34.0
1109,1653.0,-30.0
1110,1490.0,-24.0
1111,948.0,-22.0
1112,754.0,-25.0
1113,1216.0,-24.0
1114,1655.0,-15.0
1115,1497.0,-2.0
1116,928.0,2.0
1117,779.0,-1.0
1118,1244.0,-10.0
1119,1682.0,-15.0
1120,1469.0,-15.0
1121,917.0,-17.0
1122,746.0,-20.0
1123,1171.0,-18.0
1124,1629.0,-8.0
1125,1487.0,7.0
1126,958.0,18.0
1127,768.0,19.0
1128,1155.0,18.0
1129,1615.0,23.0
1130,1484.0,31.0
1131,992.0,34.0
1132,753.0,29.0
1133,1128.0,21.0
1134,1597.0,19.0
1135,1545.0,19.0
1136,1031.0,17.0
1137,764.0,10.0
1138,1108.0,4.0
1139,1583.0,7.0
1140,1527.0,16.0
1141,1032.0,22.0
1142,1558.0,30.0
1143,1599.0,32.0
1144,1095.0,33.0
1145,758.0,27.0
1146,1011.0,17.0
1147,1568.0,12.0
1148,1640.0,12.0
1149,1161.0,13.0
1150,824.0,11.0
1151,1053.0,11.0
1152,1584.0,19.0
1153,1672.0,36.0
1154,1178.0,51.0
1155,804.0,56.0
1156,1012.0,54.0
1157,1120.0,60.0
1158,703.0,58.0
1159,925.0,57.0
1160,1452.0,63.0
1161,1607.0,75.0
1162,1198.0,85.0
1163,761.0,86.0
1164,871.0,78.0
1165,1395.0,69.0
1166,1588.0,60.0
1167,1218.0,47.0
1168,775.0,25.0
1169,899.0,0.0
1170,1215.0,-32.0
1171,743.0,-34.0
1172,876.0,-36.0
1173,1409.0,-32.0
1174,1663.0,-21.0
1175,1396.0,-12.0
1176,1009.0,-10.0
1177,1121.0,-12.0
1178,1711.0,-10.0
1179,2049.0,0.0
1180,1715.0,10.0
1181,1126.0,15.0
1182,1072.0,14.0
1183,1506.0,12.0
1184,1771.0,16.0
1185,1430.0,24.0
1186,940.0,33.0
1187,940.0,49.0
1188,1441.0,82.0
1189,1735.0,135.0
1190,1422.0,197.0
1191,932.0,252.0
1192,881.0,289.0
1193,1349.0,304.0
1194,1681.0,297.0
1195,1408.0,263.0
1196,892.0,202.0
1197,871.0,123.0
1198,1365.0,47.0
1199,1724.0,-10.0
1200,1462.0,-50.0
1201,940.0,-79.0
1202,880.0,-100.0
1203,1356.0,-113.0
1204,1724.0,-117.0
1205,1509.0,-118.0
1206,969.0,-125.0
1207,868.0,-136.0
1208,1342.0,-141.0
1209,1755.0,-134.0
1210,1543.0,-116.0
1211,1012.0,-99.0
1212,931.0,-84.0
1213,1384.0,-69.0
1214,1799.0,-50.0
1215,1627.0,-32.0
1216,960.0,-24.0
1217,1369.0,-25.0
1218,1788.0,-21.0
1219,1685.0,-14.0
1220,1180.0,-10.0
1221,1014.0,-10.0
1222,1418.0,-9.0
1223,1869.0,0.0
1224,1773.0,15.0
1225,1237.0,26.0
1226,1006.0,30.0
1227,1412.0,32.0
1228,1904.0,37.0
1229,1804.0,44.0
1230,1247.0,46.0
1231,1019.0,41.0
1232,1370.0,36.0
1233,1889.0,40.0
1234,1872.0,50.0
1235,1317.0,58.0
1236,1025.0,58.0
1237,1337.0,54.0
1238,1791.0,54.0
1239,1765.0,56.0
1240,1300.0,51.0
1241,1047.0,38.0
1242,1375.0,23.0
1243,1855.0,15.0
1244,1816.0,13.0
1245,1302.0,11.0
1246,995.0,3.0
1247,1284.0,-6.0
1248,1840.0,-13.0
1249,1894.0,-18.0
1250,1363.0,-28.0
1251,949.0,-45.0
1252,1184.0,-62.0
1253,1724.0,-69.0
1254,1833.0,-65.0
1255,1383.0,-59.0
1256,1033.0,-58.0
1257,1280.0,-60.0
1258,1771.0,-58.0
1259,1805.0,-54.0
1260,1338.0,-52.0
1261,999.0,-58.0
1262,1256.0,-68.0
1263,1779.0,-75.0
1264,1884.0,-77.0
1265,1433.0,-80.0
1266,1032.0,-87.0
1267,1220.0,-93.0
1268,1743.0,-90.0
1269,1882.0,-77.0
1270,1463.0,-63.0
1271,1070.0,-58.0
1272,1249.0,-59.0
1273,1768.0,-59.0
1274,1879.0,-53.0
1275,1470.0,-47.0
1276,1070.0,-44.0
1277,1235.0,-43.0
1278,1777.0,-37.0
1279,1957.0,-26.0
1280,1503.0,-17.0
1281,1050.0,-17.0
1282,1157.0,-22.0
1283,1688.0,-22.0
1284,1918.0,-17.0
1285,1519.0,-11.0
1286,1088.0,-11.0
1287,1190.0,-16.0
1288,1711.0,-16.0
1289,1966.0,-10.0
1290,1557.0,-4.0
1291,1097.0,-5.0
1292,1185.0,-12.0
1293,1716.0,-18.0
1294,2020.0,-20.0
1295,1648.0,-23.0
1296,1137.0,-32.0
1297,1162.0,-42.0
1298,1698.0,-46.0
1299,2028.0,-37.0
1300,1661.0,-25.0
1301,1159.0,-17.0
1302,1194.0,-14.0
1303,1698.0,-10.0
1304,2012.0,0.0
1305,1681.0,10.0
1306,1175.0,14.0
1307,1143.0,14.0
1308,1677.0,15.0
1309,2055.0,21.0
1310,1767.0,28.0
1311,1174.0,28.0
1312,1109.0,20.0
1313,1631.0,15.0
1314,1990.0,17.0
1315,1773.0,20.0
1316,1273.0,18.0
1317,1195.0,9.0
1318,1663.0,2.0
1319,2045.0,3.0
1320,1767.0,7.0
1321,1242.0,7.0
1322,1129.0,1.0
1323,1656.0,-3.0
1324,2097.0,-3.0
1325,1859.0,0.0
1326,1301.0,-2.0
1327,1162.0,-7.0
1328,1661.0,-8.0
1329,2112.0,0.0
1330,1888.0,14.0
1331,1300.0,22.0
1332,1120.0,20.0
1333,1569.0,15.0
1334,1984.0,14.0
1335,1832.0,17.0
1336,1314.0,17.0
1337,1143.0,14.0
1338,1537.0,15.0
1339,1988.0,25.0
1340,1847.0,37.0
1341,1271.0,42.0
1342,1059.0,36.0
1343,1447.0,24.0
1344,1844.0,3.0
1345,1327.0,-11.0
1346,1073.0,-30.0
1347,1453.0,-45.0
1348,1900.0,-49.0
1349,1816.0,-44.0
1350,1324.0,-40.0
1351,1061.0,-44.0
1352,1411.0,-52.0
1353,1934.0,-57.0
1354,1943.0,-58.0
1355,1434.0,-61.0
1356,1210.0,-67.0
1357,1594.0,-70.0
1358,2173.0,-63.0
1359,2203.0,-48.0
1360,1594.0,-37.0
1361,1193.0,-34.0
1362,1471.0,-35.0
1363,1972.0,-31.0
1364,1956.0,-21.0
1365,1351.0,-9.0
1366,973.0,2.0
1367,1871.0,54.0
1368,1961.0,99.0
1369,1439.0,141.0
1370,1059.0,171.0
1371,1303.0,184.0
1372,1793.0,184.0
1373,1899.0,168.0
1374,1434.0,130.0
1375,1026.0,70.0
1376,1250.0,2.0
1377,1787.0,-55.0
1378,1908.0,-94.0
1379,1428.0,-116.0
1380,1016.0,-128.0
1381,1216.0,-129.0
1382,1719.0,-116.0
1383,1900.0,-94.0
1384,1467.0,-76.0
1385,1040.0,-70.0
1386,1197.0,-72.0
1387,1643.0,-70.0
1388,1891.0,-62.0
1389,1514.0,-51.0
1390,1181.0,-41.0
1391,1699.0,-34.0
1392,1898.0,-23.0
1393,1492.0,-13.0
1394,1026.0,-11.0
1395,1150.0,-14.0
1396,1680.0,-14.0
1397,1890.0,-8.0
1398,1510.0,0.0
1399,1048.0,1.0
1400,1135.0,1.0
1401,1655.0,6.0
1402,1912.0,18.0
1403,1539.0,29.0
1404,1046.0,32.0
1405,1123.0,28.0
1406,1659.0,25.0
1407,1949.0,26.0
1408,1577.0,28.0
1409,1043.0,25.0
1410,1073.0,19.0
1411,1337.0,7.0
1412,1706.0,6.0
1413,747.0,5.0
1414,1208.0,0.0
1415,1616.0,0.0
1416,1386.0,0.0
1417,838.0,-7.0
1418,732.0,-25.0
1419,1192.0,-42.0
1420,1616.0,-53.0
1421,1429.0,-60.0
1422,877.0,-69.0
1423,709.0,-82.0
1424,1163.0,-91.0
1425,1620.0,-93.0
1426,1456.0,-89.0
1427,897.0,-89.0
1428,726.0,-93.0
1429,1148.0,-92.0
1430,1611.0,-80.0
1431,1480.0,-59.0
1432,976.0,-40.0
1433,747.0,-25.0
1434,1175.0,-11.0
1435,1624.0,7.0
1436,1468.0,27.0
1437,960.0,41.0
1438,748.0,47.0
1439,1153.0,50.0
1440,1581.0,59.0
1441,1493.0,71.0
1442,972.0,81.0
1443,711.0,83.0
1444,1050.0,86.0
1445,1540.0,93.0
1446,1492.0,103.0
1447,673.0,103.0
1448,990.0,94.0
1449,1453.0,90.0
1450,1447.0,90.0
1451,922.0,87.0
1452,621.0,77.0
1453,942.0,66.0
1454,1420.0,60.0
1455,1350.0,58.0
1456,829.0,53.0
1457,491.0,42.0
1458,814.0,29.0
1459,1326.0,22.0
1460,1356.0,20.0
1461,833.0,17.0
1462,489.0,7.0
1463,742.0,-2.0
1464,1248.0,-6.0
1465,1325.0,-5.0
1466,853.0,-7.0
1467,490.0,-18.0
1468,717.0,-33.0
1469,1202.0,-44.0
1470,1258.0,-47.0
1471,794.0,-48.0
1472,452.0,-52.0
1473,678.0,-55.0
1474,1204.0,-48.0
1475,1316.0,-35.0
1476,849.0,-22.0
1477,450.0,-17.0
1478,651.0,-14.0
1479,1117.0,-9.0
1480,1250.0,0.0
1481,815.0,7.0
1482,397.0,6.0
1483,593.0,2.0
1484,1132.0,2.0
1485,1342.0,10.0
1486,926.0,21.0
1487,459.0,28.0
1488,615.0,32.0
1489,1152.0,38.0
1490,1343.0,47.0
1491,965.0,50.0
1492,498.0,42.0
1493,581.0,28.0
1494,1076.0,20.0
1495,1297.0,23.0
1496,938.0,33.0
1497,512.0,42.0
1498,590.0,51.0
1499,1075.0,66.0
1500,1259.0,85.0
1501,900.0,102.0
1502,427.0,107.0
1503,455.0,102.0
1504,959.0,96.0
1505,1251.0,93.0
1506,908.0,89.0
1507,453.0,79.0
1508,477.0,65.0
1509,964.0,56.0
1510,1275.0,54.0
1511,954.0,53.0
1512,433.0,45.0
1513,439.0,28.0
1514,960.0,11.0
1515,1255.0,0.0
1516,952.0,-9.0
1517,450.0,-19.0
1518,401.0,-28.0
1519,889.0,-27.0
1520,1296.0,-15.0
1521,1079.0,1.0
1522,655.0,12.0
1523,684.0,16.0
1524,1231.0,18.0
1525,1638.0,24.0
1526,586.0,230.0
1527,429.0,265.0
1528,858.0,281.0
1529,1280.0,276.0
1530,1080.0,248.0
1531,547.0,192.0
1532,400.0,117.0
1533,860.0,40.0
1534,1331.0,-22.0
1535,1193.0,-67.0
1536,666.0,-98.0
1537,463.0,-120.0
1538,869.0,-130.0
1539,1321.0,-128.0
1540,1211.0,-121.0
1541,907.0,-135.0
1542,1358.0,-131.0
1543,1265.0,-116.0
1544,767.0,-97.0
1545,529.0,-79.0
1546,910.0,-60.0
1547,1408.0,-36.0
1548,1349.0,-13.0
1549,828.0,0.0
1550,561.0,1.0
1551,913.0,0.0
1552,1379.0,1.0
1553,1334.0,9.0
1554,901.0,9.0
1555,1390.0,11.0
1556,1388.0,18.0
1557,906.0,21.0
1558,633.0,17.0
1559,954.0,11.0
1560,1493.0,9.0
1561,1503.0,11.0
1562,1016.0,9.0
1563,681.0,0.0
1564,923.0,-10.0
1565,1410.0,-14.0
1566,1447.0,-12.0
1567,1029.0,-12.0
1568,719.0,-18.0
1569,972.0,-23.0
1570,1434.0,-21.0
1571,1500.0,-11.0
1572,1054.0,0.0
1573,712.0,4.0
1574,932.0,5.0
1575,1423.0,6.0
1576,1510.0,7.0
1577,1026.0,0.0
1578,571.0,-14.0
1579,742.0,-32.0
1580,1199.0,-42.0
1581,1307.0,-43.0
1582,877.0,-41.0
1583,446.0,-43.0
1584,572.0,-48.0
1585,1092.0,-50.0
1586,1239.0,-50.0
1587,793.0,-54.0
1588,383.0,-70.0
1589,517.0,-94.0
1590,1048.0,-120.0
1591,1243.0,-146.0
1592,846.0,-176.0
1593,406.0,-213.0
1594,510.0,-252.0
1595,1046.0,-281.0
1596,1273.0,-297.0
1597,878.0,-305.0
1598,414.0,-312.0
1599,494.0,-317.0
1600,1279.0,-297.0
1601,1064.0,-277.0
1602,760.0,-259.0
1603,907.0,-242.0
1604,1461.0,-220.0
1605,1745.0,-191.0
1606,1427.0,-161.0
1607,947.0,-140.0
1608,971.0,-128.0
1609,1484.0,-116.0
1610,1746.0,-100.0
1611,1439.0,-79.0
1612,959.0,-56.0
1613,965.0,-22.0
1614,1436.0,30.0
1615,1753.0,105.0
1616,1478.0,188.0
1617,978.0,264.0
1618,972.0,322.0
1619,1446.0,360.0
1620,1798.0,380.0
1621,1511.0,377.0
1622,983.0,351.0
1623,951.0,310.0
1624,1433.0,267.0
1625,1774.0,232.0
1626,1544.0,204.0
1627,1049.0,175.0
1628,979.0,144.0
1629,1424.0,117.0
1630,1807.0,100.0
1631,1599.0,86.0
1632,1101.0,69.0
1633,972.0,47.0
1634,1441.0,29.0
1635,1858.0,18.0
1636,1642.0,12.0
1637,1106.0,4.0
1638,959.0,-7.0
1639,1381.0,-14.0
1640,1782.0,-14.0
1641,1615.0,-9.0
1642,1146.0,-8.0
1643,1016.0,-13.0
1644,1416.0,-18.0
1645,1817.0,-17.0
1646,1666.0,-13.0
1647,1667.0,-48.0
1648,1168.0,-58.0
1649,985.0,-73.0
1650,1335.0,-83.0
1651,1810.0,-83.0
1652,1742.0,-76.0
1653,1228.0,-70.0
1654,951.0,-72.0
1655,1338.0,-77.0
1656,1839.0,-79.0
1657,1790.0,-79.0
1658,1285.0,-84.0
1659,999.0,-93.0
1660,1300.0,-101.0
1661,1815.0,-100.0
1662,1845.0,-91.0
1663,1373.0,-85.0
1664,1076.0,-85.0
1665,1404.0,-86.0
1666,1874.0,-82.0
1667,1377.0,-8.0
1668,1011.0,-14.0
1669,1264.0,-31.0
1670,1751.0,-50.0
1671,1875.0,-66.0
1672,1425.0,-82.0
1673,1051.0,-99.0
1674,1319.0,-110.0
1675,1860.0,-108.0
1676,1946.0,-93.0
1677,1482.0,-78.0
1678,1138.0,-69.0
1679,1429.0,-66.0
1680,2018.0,-62.0
1681,2205.0,-55.0
1682,1397.0,-49.0
1683,1553.0,-48.0
1684,2003.0,-39.0
1685,2070.0,-21.0
1686,1558.0,-2.0
1687,1096.0,10.0
1688,1248.0,21.0
1689,1800.0,38.0
1690,1997.0,65.0
1691,1560.0,97.0
1692,1098.0,128.0
1693,1201.0,157.0
1694,1698.0,184.0
1695,1918.0,204.0
1696,1523.0,202.0
1697,1064.0,170.0
1698,1164.0,113.0
1699,1648.0,48.0
1700,1899.0,-12.0
1701,1543.0,-65.0
1702,1069.0,-109.0
1703,1107.0,-141.0
1704,1612.0,-154.0
1705,1916.0,-152.0
1706,1559.0,-145.0
1707,1024.0,-145.0
1708,1054.0,-151.0
1709,1569.0,-154.0
1710,1857.0,-148.0
1711,1556.0,-137.0
1712,1080.0,-128.0
1713,1065.0,-121.0
1714,1551.0,-110.0
1715,1865.0,-91.0
1716,1019.0,-62.0
1717,1509.0,-61.0
1718,1849.0,-55.0
1719,1589.0,-48.0
1720,1043.0,-46.0
1721,986.0,-47.0
1722,1477.0,-43.0
1723,1859.0,-31.0
1724,1619.0,-16.0
1725,1060.0,-8.0
1726,975.0,-8.0
1727,1414.0,-9.0
1728,1775.0,-4.0
1729,1550.0,1.0
1730,1070.0,3.0
1731,980.0,0.0
1732,1422.0,0.0
1733,1829.0,8.0
1734,1632.0,19.0
1735,1074.0,27.0
1736,983.0,27.0
1737,1467.0,27.0
1738,1830.0,31.0
1739,1623.0,34.0
1740,1115.0,32.0
1741,987.0,23.0
1742,1426.0,18.0
1743,1837.0,23.0
1744,1654.0,35.0
1745,1120.0,47.0
1746,915.0,55.0
1747,1319.0,64.0
1748,1730.0,77.0
1749,1596.0,91.0
1750,1090.0,97.0
1751,840.0,95.0
1752,1191.0,92.0
1753,1648.0,96.0
1754,1551.0,102.0
1755,1040.0,104.0
1756,795.0,97.0
1757,1152.0,87.0
1758,1608.0,80.0
1759,1557.0,74.0
1760,1047.0,61.0
1761,753.0,41.0
1762,1057.0,20.0
1763,1540.0,7.0
1764,1519.0,1.0
1765,1016.0,-5.0
1766,733.0,-16.0
1767,1042.0,-24.0
1768,1541.0,-24.0
1769,1545.0,-16.0
1770,1050.0,-8.0
1771,712.0,-5.0
1772,1009.0,-5.0
1773,1516.0,0.0
1774,1551.0,6.0
1775,1072.0,10.0
1776,707.0,7.0
1777,968.0,4.0
1778,1473.0,8.0
1779,1536.0,20.0
1780,1047.0,32.0
1781,736.0,39.0
1782,970.0,44.0
1783,1447.0,52.0
1784,1520.0,64.0
1785,1074.0,72.0
1786,714.0,73.0
1787,924.0,70.0
1788,1439.0,70.0
1789,1509.0,76.0
1790,1086.0,81.0
1791,745.0,78.0
1792,964.0,73.0
1793,1439.0,74.0
1794,1568.0,80.0
1795,1112.0,86.0
1796,699.0,85.0
1797,889.0,80.0
1798,1430.0,79.0
1799,1572.0,83.0
1800,1153.0,86.0
1801,727.0,84.0
1802,878.0,82.0
1803,1381.0,85.0
1804,1569.0,96.0
1805,1143.0,107.0
1806,745.0,110.0
1807,910.0,106.0
1808,1403.0,103.0
1809,1567.0,104.0
1810,1158.0,104.0
1811,726.0,98.0
1812,817.0,90.0
1813,1337.0,87.0
1814,1567.0,90.0
1815,1216.0,93.0
1816,700.0,90.0
1817,720.0,82.0
1818,1206.0,79.0
1819,1427.0,84.0
1820,1120.0,88.0
1821,650.0,86.0
1822,676.0,77.0
1823,1183.0,70.0
1824,1477.0,67.0
1825,1172.0,65.0
1826,691.0,56.0
1827,675.0,42.0
1828,1159.0,30.0
1829,1482.0,21.0
1830,1155.0,10.0
1831,652.0,-8.0
1832,666.0,-31.0
1833,1193.0,-48.0
1834,1549.0,-51.0
1835,1241.0,-46.0
1836,756.0,-39.0
1837,717.0,-32.0
1838,1154.0,-22.0
1839,1520.0,-7.0
1840,1296.0,6.0
1841,801.0,10.0
1842,688.0,6.0
1843,1087.0,3.0
1844,1467.0,9.0
1845,1234.0,21.0
1846,736.0,32.0
1847,619.0,40.0
1848,1043.0,50.0
1849,1436.0,63.0
1850,1278.0,76.0
1851,748.0,79.0
1852,595.0,72.0
1853,1037.0,62.0
1854,1424.0,55.0
1855,1247.0,49.0
1856,706.0,36.0
1857,537.0,16.0
1858,940.0,-3.0
1859,1411.0,-15.0
1860,1316.0,-20.0
1861,832.0,-25.0
1862,636.0,-32.0
1863,1034.0,-35.0
1864,1489.0,-31.0
1865,1418.0,-23.0
1866,964.0,-22.0
1867,854.0,-30.0
1868,1371.0,-40.0
1869,1902.0,-45.0
1870,1805.0,-43.0
1871,1201.0,-40.0
1872,849.0,-37.0
1873,1127.0,-27.0
1874,1526.0,-7.0
1875,1407.0,18.0
1876,916.0,43.0
1877,676.0,64.0
1878,1030.0,90.0
1879,1494.0,130.0
1880,1453.0,183.0
1881,903.0,235.0
1882,589.0,272.0
1883,863.0,287.0
1884,1388.0,278.0
1885,1428.0,240.0
1886,935.0,170.0
1887,618.0,77.0
1888,933.0,-17.0
1889,1449.0,-92.0
1890,1474.0,-139.0
1891,990.0,-165.0
1892,690.0,-179.0
1893,949.0,-178.0
1894,1480.0,-164.0
1895,1535.0,-138.0
1896,1064.0,-108.0
1897,697.0,-83.0
1898,936.0,-62.0
1899,1467.0,-41.0
1900,1586.0,-20.0
1901,1149.0,-7.0
1902,768.0,-6.0
1903,981.0,-11.0
1904,1494.0,-14.0
1905,1638.0,-12.0
1906,1203.0,-11.0
1907,821.0,-16.0
1908,1015.0,-24.0
1909,1510.0,-27.0
1910,1724.0,-22.0
1911,1330.0,-17.0
1912,894.0,-16.0
1913,1030.0,-18.0
1914,1542.0,-13.0
1915,1729.0,-1.0
1916,1334.0,8.0
1917,911.0,11.0
1918,1005.0,10.0
1919,1540.0,11.0
1920,1771.0,18.0
1921,1376.0,27.0
1922,918.0,30.0
1923,1019.0,29.0
1924,1535.0,31.0
1925,1767.0,37.0
1926,1417.0,39.0
1927,980.0,32.0
1928,1054.0,18.0
1929,1551.0,5.0
1930,1792.0,0.0
1931,1413.0,-4.0
1932,919.0,-11.0
1933,945.0,-22.0
1934,1470.0,-28.0
1935,1751.0,-27.0
1936,1458.0,-24.0
1937,967.0,-27.0
1938,976.0,-33.0
1939,1448.0,-34.0
1940,1728.0,-29.0
1941,1432.0,-24.0
1942,986.0,-27.0
1943,1019.0,-40.0
1944,1528.0,-54.0
1945,1852.0,-65.0
1946,1539.0,-74.0
1947,1023.0,-85.0
1948,1007.0,-96.0
1949,1503.0,-100.0
1950,1873.0,-94.0
1951,1592.0,-86.0
1952,1056.0,-82.0
1953,1011.0,-84.0
1954,1487.0,-82.0
1955,1842.0,-70.0
1956,1608.0,-53.0
1957,1097.0,-39.0
1958,1011.0,-31.0
1959,1462.0,-23.0
1960,1854.0,-13.0
1961,1645.0,-4.0
1962,1103.0,-5.0
1963,972.0,-14.0
1964,1418.0,-22.0
1965,1786.0,-24.0
1966,1611.0,-23.0
1967,1113.0,-26.0
1968,993.0,-35.0
1969,1391.0,-43.0
1970,1770.0,-43.0
1971,1603.0,-39.0
1972,1099.0,-40.0
1973,970.0,-47.0
1974,1344.0,-54.0
1975,1712.0,-57.0
1976,1519.0,-58.0
1977,975.0,-64.0
1978,804.0,-74.0
1979,1227.0,-83.0
1980,1655.0,-83.0
1981,1539.0,-77.0
1982,1032.0,-74.0
1983,825.0,-77.0
1984,1202.0,-80.0
1985,1652.0,-80.0
1986,1545.0,-79.0
1987,1034.0,-87.0
1988,831.0,-104.0
1989,1658.0,-138.0
1990,1587.0,-144.0
1991,1078.0,-147.0
1992,791.0,-149.0
1993,1143.0,-143.0
1994,1658.0,-127.0
1995,1626.0,-104.0
1996,1097.0,-86.0
1997,1184.0,0.0
1998,1647.0,5.0
1999,1704.0,15.0
2000,1245.0,23.0
2001,934.0,24.0
2002,1196.0,22.0
2003,1712.0,26.0
2004,1764.0,35.0
2005,1293.0,43.0
2006,901.0,45.0
2007,1145.0,47.0
2008,1647.0,54.0
2009,1700.0,68.0
2010,1245.0,80.0
2011,868.0,85.0
2012,1053.0,88.0
2013,1566.0,94.0
2014,1714.0,106.0
2015,1286.0,114.0
2016,865.0,114.0
2017,999.0,107.0
2018,1526.0,100.0
2019,1714.0,95.0
2020,1296.0,84.0
2021,862.0,64.0
2022,1018.0,40.0
2023,1536.0,21.0
2024,1745.0,13.0
2025,1336.0,7.0
2026,930.0,0.0
2027,1161.0,-6.0
2028,1763.0,-8.0
2029,2047.0,-1.0
2030,1680.0,4.0
2031,1227.0,5.0
2032,1300.0,2.0
2033,1728.0,3.0
2034,1875.0,12.0
2035,1430.0,23.0
2036,932.0,30.0
2037,980.0,37.0
2038,1455.0,55.0
2039,1766.0,90.0
2040,1442.0,135.0
2041,950.0,182.0
2042,996.0,224.0
2043,1455.0,261.0
2044,1740.0,286.0
2045,1362.0,285.0
2046,822.0,250.0
2047,821.0,185.0
2048,1391.0,108.0
2049,1689.0,35.0
2050,1376.0,-26.0
2051,900.0,-75.0
2052,899.0,-106.0
2053,1376.0,-115.0
2054,1662.0,-105.0
2055,1376.0,-88.0
2056,897.0,-81.0
2057,883.0,-87.0
2058,1352.0,-98.0
2059,1679.0,-105.0
2060,1391.0,-109.0
2061,906.0,-112.0
2062,839.0,-111.0
2063,1300.0,-100.0
2064,1720.0,-77.0
2065,1497.0,-52.0
2066,1005.0,-35.0
2067,913.0,-28.0
2068,1368.0,-25.0
2069,1736.0,-18.0
2070,1466.0,-11.0
2071,948.0,-9.0
2072,884.0,-13.0
2073,1351.0,-14.0
2074,1741.0,-8.0
2075,1520.0,3.0
2076,1008.0,13.0
2077,868.0,21.0
2078,1280.0,32.0
2079,1728.0,50.0
2080,1601.0,67.0
2081,1082.0,75.0
2082,898.0,69.0
2083,1334.0,60.0
2084,1774.0,55.0
2085,1671.0,53.0
2086,1184.0,49.0
2087,1049.0,42.0
2088,1502.0,37.0
2089,1977.0,39.0
2090,1815.0,47.0
2091,1238.0,50.0
2092,997.0,48.0
2093,1341.0,47.0
2094,1864.0,54.0
2095,1795.0,68.0
2096,1250.0,79.0
2097,1000.0,88.0
2098,1353.0,101.0
2099,1792.0,124.0
2100,1691.0,153.0
2101,1177.0,176.0
2102,931.0,184.0
2103,1274.0,179.0
2104,1759.0,168.0
2105,1758.0,151.0
2106,1238.0,125.0
2107,928.0,91.0
2108,1218.0,59.0
2109,1726.0,39.0
2110,1781.0,28.0
2111,1303.0,16.0
2112,956.0,-3.0
2113,1257.0,-25.0
2114,1784.0,-40.0
2115,1820.0,-47.0
2116,1295.0,-52.0
2117,983.0,-59.0
2118,1279.0,-62.0
2119,1375.0,-38.0
2120,996.0,-36.0
2121,1253.0,-36.0
2122,1759.0,-29.0
2123,1878.0,-16.0
2124,1423.0,-5.0
2125,1049.0,-2.0
2126,1261.0,-3.0
2127,1751.0,0.0
2128,1859.0,7.0
2129,1408.0,13.0
2130,1012.0,11.0
2131,1204.0,5.0
2132,1432.0,9.0
2133,1036.0,4.0
2134,1225.0,-3.0
2135,1746.0,-5.0
2136,1875.0,-1.0
2137,1460.0,0.0
2138,1040.0,-7.0
2139,1168.0,-20.0
2140,1697.0,-30.0
2141,1883.0,-34.0
2142,1458.0,-38.0
2143,951.0,-45.0
2144,1046.0,-52.0
2145,1614.0,-51.0
2146,1834.0,-41.0
2147,1469.0,-31.0
2148,1006.0,-29.0
2149,1087.0,-32.0
2150,1601.0,-35.0
2151,1827.0,-33.0
2152,1460.0,-34.0
2153,977.0,-43.0
2154,1044.0,-60.0
2155,1562.0,-75.0
2156,1807.0,-83.0
2157,1445.0,-88.0
2158,949.0,-96.0
2159,1000.0,-102.0
2160,1508.0,-101.0
2161,1821.0,-88.0
2162,1488.0,-74.0
2163,939.0,-67.0
2164,944.0,-68.0
2165,1454.0,-69.0
2166,1783.0,-66.0
2167,1501.0,-64.0
2168,1016.0,-68.0
2169,977.0,-76.0
2170,1425.0,-81.0
2171,1769.0,-76.0
2172,1511.0,-69.0
2173,1011.0,-66.0
2174,919.0,-68.0
2175,1419.0,-68.0
2176,1793.0,-63.0
2177,1544.0,-55.0
2178,915.0,-53.0
2179,1324.0,-50.0
2180,1686.0,-39.0
2181,1488.0,-25.0
2182,998.0,-18.0
2183,866.0,-19.0
2184,1264.0,-21.0
2185,1644.0,-17.0
2186,1463.0,-9.0
2187,936.0,-5.0
2188,766.0,-6.0
2189,1207.0,-8.0
2190,1656.0,-6.0
2191,1493.0,-4.0
2192,941.0,-10.0
2193,760.0,-24.0
2194,1171.0,-37.0
2195,1597.0,-43.0
2196,1434.0,-43.0
2197,949.0,-46.0
2198,774.0,-54.0
2199,1173.0,-60.0
2200,1630.0,-59.0
2201,1493.0,-51.0
2202,989.0,-46.0
2203,813.0,-44.0
2204,1260.0,-41.0
2205,1766.0,-31.0
2206,1749.0,-20.0
2207,1288.0,-14.0
2208,1153.0,-15.0
2209,1499.0,-17.0
2210,1867.0,-10.0
2211,1717.0,3.0
2212,1131.0,15.0
2213,801.0,23.0
2214,1079.0,34.0
2215,1539.0,54.0
2216,1516.0,84.0
2217,1060.0,119.0
2218,768.0,157.0
2219,1047.0,199.0
2220,1533.0,247.0
2221,1520.0,288.0
2222,1015.0,306.0
2223,677.0,289.0
2224,958.0,240.0
2225,1472.0,173.0
2226,1502.0,97.0
2227,1029.0,18.0
2228,728.0,-53.0
2229,978.0,-105.0
2230,1425.0,-128.0
2231,1473.0,-125.0
2232,1000.0,-112.0
2233,654.0,-102.0
2234,901.0,-95.0
2235,1421.0,-88.0
2236,1515.0,-80.0
2237,1055.0,-73.0
2238,647.0,-71.0
2239,874.0,-68.0
2240,1406.0,-55.0
2241,1533.0,-36.0
2242,1104.0,-20.0
2243,713.0,-14.0
2244,919.0,-16.0
2245,1415.0,-17.0
2246,1572.0,-12.0
2247,1127.0,-8.0
2248,714.0,-7.0
2249,903.0,-7.0
2250,1419.0,0.0
2251,1604.0,13.0
2252,1194.0,26.0
2253,772.0,32.0
2254,871.0,36.0
2255,1374.0,44.0
2256,1575.0,58.0
2257,1200.0,72.0
2258,738.0,76.0
2259,839.0,74.0
2260,1526.0,79.0
2261,1115.0,85.0
2262,665.0,84.0
2263,798.0,79.0
2264,1321.0,77.0
2265,1551.0,80.0
2266,1153.0,81.0
2267,662.0,73.0
2268,727.0,59.0
2269,1256.0,48.0
2270,1471.0,41.0
2271,1102.0,35.0
2272,636.0,22.0
2273,675.0,5.0
2274,1168.0,-6.0
2275,1408.0,-8.0
2276,1112.0,-6.0
2277,607.0,-7.0
2278,640.0,-11.0
2279,1111.0,-11.0
2280,1386.0,-7.0
2281,1064.0,-5.0
2282,566.0,-11.0
2283,552.0,-25.0
2284,1041.0,-35.0
2285,1357.0,-39.0
2286,1091.0,-38.0
2287,564.0,-41.0
2288,532.0,-47.0
2289,1026.0,-49.0
2290,1360.0,-43.0
2291,1105.0,-36.0
2292,609.0,-36.0
2293,532.0,-42.0
2294,1000.0,-48.0
2295,1137.0,-42.0
2296,595.0,-41.0
2297,506.0,-43.0
2298,998.0,-40.0
2299,1395.0,-29.0
2300,1177.0,-13.0
2301,691.0,-3.0
2302,582.0,0.0
2303,1005.0,5.0
2304,1384.0,17.0
2305,1175.0,30.0
2306,1227.0,78.0
2307,750.0,82.0
2308,561.0,75.0
2309,944.0,65.0
2310,1361.0,60.0
2311,1219.0,57.0
2312,718.0,51.0
2313,522.0,41.0
2314,909.0,34.0
2315,1367.0,36.0
2316,1288.0,43.0
2317,789.0,47.0
2318,517.0,45.0
2319,859.0,43.0
2320,1333.0,46.0
2321,1250.0,50.0
2322,837.0,48.0
2323,590.0,37.0
2324,931.0,25.0
2325,1401.0,19.0
2326,1372.0,20.0
2327,878.0,21.0
2328,602.0,19.0
2329,932.0,16.0
2330,1399.0,18.0
2331,1407.0,23.0
2332,934.0,24.0
2333,641.0,18.0
2334,940.0,14.0
2335,1412.0,19.0
2336,1417.0,33.0
2337,945.0,48.0
2338,620.0,57.0
2339,886.0,61.0
2340,1434.0,66.0
2341,1488.0,72.0
2342,1011.0,72.0
2343,692.0,64.0
2344,943.0,54.0
2345,1452.0,50.0
2346,1510.0,51.0
2347,1065.0,50.0
2348,700.0,40.0
2349,933.0,27.0
2350,1476.0,18.0
2351,1582.0,15.0
2352,1131.0,14.0
2353,766.0,10.0
2354,971.0,7.0
2355,1484.0,11.0
2356,1604.0,22.0
2357,1141.0,30.0
2358,720.0,29.0
2359,856.0,22.0
2360,1339.0,18.0
2361,1487.0,19.0
2362,1061.0,21.0
2363,624.0,17.0
2364,749.0,13.0
2365,1303.0,14.0
2366,1524.0,21.0
2367,679.0,17.0
2368,789.0,0.0
2369,1291.0,-19.0
2370,1494.0,-38.0
2371,1137.0,-61.0
2372,704.0,-92.0
2373,801.0,-125.0
2374,1251.0,-148.0
2375,1501.0,-157.0
2376,1146.0,-156.0
2377,689.0,-152.0
2378,784.0,-145.0
2379,1350.0,-131.0
2380,1096.0,-78.0
2381,1687.0,-76.0
2382,1975.0,-70.0
2383,1565.0,-64.0
2384,983.0,-64.0
2385,913.0,-69.0
2386,1370.0,-68.0
2387,1616.0,-56.0
2388,1314.0,-35.0
2389,820.0,-9.0
2390,819.0,22.0
2391,1312.0,68.0
2392,1626.0,125.0
2393,1314.0,182.0
2394,759.0,220.0
2395,699.0,230.0
2396,1188.0,214.0
2397,1552.0,176.0
2398,1317.0,115.0
2399,805.0,35.0
2400,721.0,-49.0
2401,1173.0,-119.0
2402,1547.0,-162.0
2403,1350.0,-182.0
2404,886.0,-190.0
2405,780.0,-195.0
2406,1190.0,-194.0
2407,1572.0,-188.0
2408,1394.0,-181.0
2409,907.0,-179.0
2410,798.0,-179.0
2411,1244.0,-173.0
2412,1620.0,-156.0
2413,864.0,-107.0
2414,768.0,-90.0
2415,1191.0,-73.0
2416,1635.0,-53.0
2417,1505.0,-33.0
2418,973.0,-20.0
2419,823.0,-16.0
2420,1246.0,-12.0
2421,1684.0,-4.0
2422,1560.0,5.0
2423,1028.0,7.0
2424,837.0,1.0
2425,1223.0,-6.0
2426,1661.0,-9.0
2427,1549.0,-7.0
2428,1064.0,-6.0
2429,873.0,-7.0
2430,1218.0,-3.0
2431,1637.0,10.0
2432,1522.0,29.0
2433,1008.0,42.0
2434,735.0,45.0
2435,1045.0,43.0
2436,1443.0,42.0
2437,944.0,37.0
2438,647.0,27.0
2439,1033.0,16.0
2440,1496.0,13.0
2441,1441.0,15.0
2442,946.0,11.0
2443,677.0,-3.0
2444,1272.0,-54.0
2445,811.0,-42.0
2446,494.0,-40.0
2447,747.0,-43.0
2448,1275.0,-43.0
2449,1362.0,-41.0
2450,898.0,-41.0
2451,502.0,-50.0
2452,719.0,-61.0
2453,1264.0,-67.0
2454,1384.0,-67.0
2455,940.0,-69.0
2456,565.0,-77.0
2457,762.0,-85.0
2458,1260.0,-84.0
2459,1355.0,-72.0
2460,921.0,-56.0
2461,587.0,-42.0
2462,800.0,-28.0
2463,1291.0,-8.0
2464,1419.0,14.0
2465,984.0,34.0
2466,572.0,45.0
2467,708.0,50.0
2468,1251.0,58.0
2469,1452.0,71.0
2470,1047.0,80.0
2471,598.0,81.0
2472,678.0,77.0
2473,1197.0,79.0
2474,1404.0,87.0
2475,1064.0,95.0
2476,635.0,97.0
2477,723.0,94.0
2478,1247.0,92.0
2479,1482.0,94.0
2480,1094.0,95.0
2481,619.0,90.0
2482,698.0,80.0
2483,1241.0,75.0
2484,1510.0,76.0
2485,1143.0,78.0
2486,664.0,74.0
2487,702.0,68.0
2488,1211.0,67.0
2489,1490.0,77.0
2490,1206.0,89.0
2491,747.0,95.0
2492,749.0,95.0
2493,1224.0,95.0
2494,1484.0,99.0
2495,1190.0,102.0
2496,723.0,99.0
2497,759.0,90.0
2498,1269.0,85.0
2499,1581.0,87.0
2500,1269.0,92.0
2501,770.0,91.0
2502,739.0,87.0
2503,1205.0,85.0
2504,1527.0,90.0
2505,1295.0,94.0
2506,805.0,91.0
2507,733.0,81.0
2508,1190.0,73.0
2509,1573.0,74.0
2510,1343.0,79.0
2511,845.0,81.0
2512,775.0,79.0
2513,1227.0,77.0
2514,1584.0,78.0
2515,820.0,47.0
2516,1221.0,41.0
2517,1622.0,40.0
2518,1462.0,44.0
2519,957.0,43.0
2520,756.0,39.0
2521,1143.0,38.0
2522,1558.0,45.0
2523,1412.0,56.0
2524,884.0,63.0
2525,932.0,-79.0
2526,714.0,-97.0
2527,1090.0,-113.0
2528,1541.0,-120.0
2529,1463.0,-120.0
2530,976.0,-118.0
2531,717.0,-119.0
2532,1069.0,-117.0
2533,1661.0,-106.0
2534,1781.0,-91.0
2535,1357.0,-79.0
2536,1136.0,-74.0
2537,1451.0,-71.0
2538,1935.0,-61.0
2539,813.0,-36.0
2540,1118.0,-36.0
2541,1617.0,-29.0
2542,1647.0,-9.0
2543,1177.0,19.0
2544,851.0,57.0
2545,1120.0,105.0
2546,1639.0,165.0
2547,1650.0,224.0
2548,1178.0,260.0
2549,803.0,258.0
2550,1012.0,219.0
2551,1514.0,155.0
2552,1612.0,78.0
2553,1169.0,-4.0
2554,761.0,-81.0
2555,966.0,-138.0
2556,1516.0,-163.0
2557,1664.0,-161.0
2558,1211.0,-147.0
2559,803.0,-135.0
2560,998.0,-128.0
2561,1516.0,-123.0
2562,1663.0,-120.0
2563,1233.0,-121.0
2564,852.0,-131.0
2565,1023.0,-140.0
2566,1554.0,-140.0
2567,1754.0,-128.0
2568,1350.0,-111.0
2569,886.0,-98.0
2570,1028.0,-87.0
2571,1522.0,-73.0
2572,897.0,-36.0
2573,1016.0,-36.0
2574,1527.0,-31.0
2575,1784.0,-19.0
2576,1401.0,-4.0
2577,925.0,4.0
2578,1064.0,8.0
2579,1551.0,13.0
2580,1745.0,20.0
2581,1380.0,22.0
2582,936.0,13.0
2583,1039.0,-1.0
2584,1557.0,-12.0
2585,1812.0,-13.0
2586,1476.0,-9.0
2587,970.0,-8.0
2588,976.0,-8.0
2589,1466.0,-3.0
2590,1759.0,5.0
2591,1436.0,11.0
2592,931.0,8.0
2593,928.0,-1.0
2594,1394.0,-8.0
2595,1677.0,-7.0
2596,1357.0,-2.0
2597,865.0,0.0
2598,871.0,-2.0
2599,1364.0,-3.0
2600,1696.0,-1.0
2601,1421.0,-2.0
2602,895.0,-13.0
2603,833.0,-32.0
2604,1270.0,-48.0
2605,1614.0,-58.0
2606,1379.0,-65.0
2607,818.0,-89.0
2608,1248.0,-98.0
2609,1587.0,-96.0
2610,1347.0,-87.0
2611,876.0,-79.0
2612,824.0,-74.0
2613,1242.0,-68.0
2614,1613.0,-58.0
2615,1423.0,-49.0
2616,925.0,-49.0
2617,814.0,-57.0
2618,1238.0,-63.0
2619,1620.0,-61.0
2620,1451.0,-54.0
2621,961.0,-50.0
2622,824.0,-50.0
2623,1231.0,-48.0
2624,1637.0,-37.0
2625,1467.0,-22.0
2626,996.0,-11.0
2627,877.0,-4.0
2628,1238.0,2.0
2629,1640.0,15.0
2630,1515.0,28.0
2631,1008.0,35.0
2632,818.0,35.0
2633,1165.0,34.0
2634,1636.0,38.0
2635,1563.0,46.0
2636,1058.0,50.0
2637,817.0,49.0
2638,1143.0,48.0
2639,1608.0,54.0
2640,1546.0,64.0
2641,1044.0,68.0
2642,831.0,63.0
2643,1195.0,55.0
2644,1658.0,51.0
2645,1572.0,51.0
2646,1062.0,49.0
2647,764.0,42.0
2648,1071.0,36.0
2649,1589.0,37.0
2650,1617.0,42.0
2651,1099.0,43.0
2652,795.0,38.0
2653,1080.0,33.0
2654,1606.0,44.0
2655,1112.0,51.0
2656,787.0,49.0
2657,1092.0,43.0
2658,1590.0,38.0
2659,1639.0,35.0
2660,1160.0,30.0
2661,790.0,20.0
2662,1043.0,12.0
2663,1569.0,14.0
2664,1621.0,24.0
2665,1168.0,33.0
2666,784.0,34.0
2667,1026.0,31.0
2668,1570.0,32.0
2669,1696.0,38.0
2670,1248.0,42.0
2671,852.0,40.0
2672,1015.0,35.0
2673,1525.0,34.0
2674,1703.0,37.0
2675,1288.0,38.0
2676,896.0,30.0
2677,1547.0,16.0
2678,1695.0,21.0
2679,1291.0,29.0
2680,854.0,33.0
2681,1007.0,34.0
2682,1512.0,40.0
2683,1681.0,49.0
2684,1266.0,56.0
2685,1423.0,-27.0
2686,1673.0,-34.0
2687,1300.0,-37.0
2688,801.0,-42.0
2689,842.0,-47.0
2690,1398.0,-46.0
2691,1717.0,-36.0
2692,1480.0,-27.0
2693,1088.0,-26.0
2694,1152.0,-30.0
2695,1720.0,-31.0
2696,2002.0,-24.0
2697,1679.0,-14.0
2698,1067.0,-9.0
2699,958.0,-11.0
2700,1342.0,-11.0
2701,1592.0,-5.0
2702,1248.0,4.0
2703,737.0,17.0
2704,780.0,37.0
2705,1304.0,73.0
2706,1681.0,126.0
2707,1434.0,182.0
2708,883.0,223.0
2709,766.0,236.0
2710,1191.0,221.0
2711,1563.0,178.0
2712,868.0,13.0
2713,776.0,-87.0
2714,1218.0,-170.0
2715,1593.0,-219.0
2716,1402.0,-230.0
2717,904.0,-216.0
2718,755.0,-187.0
2719,1203.0,-149.0
2720,1607.0,-109.0
2721,1419.0,-79.0
2722,901.0,-66.0
2723,760.0,-69.0
2724,1170.0,-73.0
2725,1600.0,-69.0
2726,1460.0,-55.0
2727,935.0,-41.0
2728,735.0,-31.0
2729,1162.0,-20.0
2730,1632.0,-6.0
2731,1511.0,5.0
2732,1000.0,10.0
2733,809.0,5.0
2734,1182.0,0.0
2735,1511.0,5.0
2736,1053.0,8.0
2737,866.0,4.0
2738,1230.0,1.0
2739,1696.0,6.0
2740,1604.0,16.0
2741,1075.0,23.0
2742,831.0,25.0
2743,1208.0,28.0
2744,1679.0,36.0
2745,1618.0,46.0
2746,1087.0,52.0
2747,795.0,50.0
2748,1121.0,47.0
2749,1583.0,52.0
2750,1576.0,62.0
2751,1104.0,69.0
2752,831.0,68.0
2753,1151.0,64.0
2754,1606.0,61.0
2755,1580.0,61.0
2756,1074.0,54.0
2757,735.0,38.0
2758,999.0,20.0
2759,1499.0,7.0
2760,1540.0,-1.0
2761,1030.0,-10.0
2762,704.0,-22.0
2763,1006.0,-32.0
2764,1503.0,-30.0
2765,1530.0,-20.0
2766,1049.0,-12.0
2767,693.0,-13.0
2768,926.0,-21.0
2769,1434.0,-30.0
2770,1517.0,-38.0
2771,1068.0,-50.0
2772,699.0,-66.0
2773,898.0,-80.0
2774,1399.0,-81.0
2775,1527.0,-70.0
2776,1088.0,-58.0
2777,699.0,-51.0
2778,894.0,-48.0
2779,1395.0,-44.0
2780,1554.0,-36.0
2781,1099.0,-31.0
2782,707.0,-34.0
2783,878.0,-39.0
2784,1402.0,-37.0
2785,1582.0,-28.0
2786,1153.0,-19.0
2787,720.0,-16.0
2788,857.0,-16.0
2789,1392.0,-12.0
2790,1598.0,-2.0
2791,1207.0,6.0
2792,1304.0,31.0
2793,1552.0,35.0
2794,1205.0,36.0
2795,749.0,29.0
2796,772.0,15.0
2797,1215.0,3.0
2798,1497.0,-1.0
2799,1195.0,-2.0
2800,733.0,-5.0
2801,726.0,-7.0
2802,1166.0,-3.0
2803,1469.0,8.0
2804,1441.0,-33.0
2805,1168.0,-29.0
2806,670.0,-29.0
2807,607.0,-35.0
2808,1068.0,-39.0
2809,1434.0,-37.0
2810,1228.0,-32.0
2811,738.0,-32.0
2812,637.0,-36.0
2813,1028.0,-36.0
2814,1478.0,-29.0
2815,1284.0,-18.0
2816,781.0,-12.0
2817,704.0,-13.0
2818,1141.0,-12.0
2819,1542.0,-5.0
2820,1334.0,4.0
2821,837.0,10.0
2822,729.0,12.0
2823,1135.0,16.0
2824,1534.0,26.0
2825,1370.0,40.0
2826,832.0,49.0
2827,1445.0,35.0
2828,1346.0,20.0
2829,834.0,1.0
2830,587.0,-22.0
2831,923.0,-42.0
2832,1394.0,-51.0
2833,1338.0,-49.0
2834,880.0,-45.0
2835,607.0,-44.0
2836,972.0,-40.0
2837,1469.0,-27.0
2838,1495.0,-11.0
2839,1076.0,0.0
2840,857.0,1.0
2841,1265.0,0.0
2842,1855.0,0.0
2843,1845.0,3.0
2844,1299.0,2.0
2845,900.0,-4.0
2846,1096.0,-9.0
2847,1545.0,-5.0
2848,1515.0,10.0
2849,1015.0,30.0
2850,688.0,52.0
2851,990.0,82.0
2852,1501.0,127.0
2853,1501.0,183.0
2854,984.0,236.0
2855,682.0,272.0
2856,900.0,285.0
2857,1376.0,274.0
2858,1490.0,238.0
2859,1028.0,174.0
2860,655.0,87.0
2861,897.0,-3.0
2862,1427.0,-77.0
2863,1516.0,-125.0
2864,1043.0,-153.0
2865,671.0,-168.0
2866,893.0,-174.0
2867,1414.0,-169.0
2868,1520.0,-157.0
2869,1115.0,-148.0
2870,721.0,-145.0
2871,934.0,-143.0
2872,1476.0,-132.0
2873,1603.0,-111.0
2874,1184.0,-89.0
2875,758.0,-73.0
2876,935.0,-62.0
2877,1601.0,-35.0
2878,1208.0,-24.0
2879,783.0,-21.0
2880,958.0,-21.0
2881,1467.0,-15.0
2882,1627.0,0.0
2883,1256.0,14.0
2884,814.0,22.0
2885,992.0,24.0
2886,1521.0,26.0
2887,1720.0,30.0
2888,1322.0,29.0
2889,870.0,21.0
2890,990.0,9.0
2891,1527.0,2.0
2892,1754.0,4.0
2893,1372.0,7.0
2894,880.0,6.0
2895,952.0,3.0
2896,1452.0,4.0
2897,1723.0,13.0
2898,1358.0,23.0
2899,879.0,27.0
2900,921.0,26.0
2901,1443.0,27.0
2902,1720.0,32.0
2903,1366.0,36.0
2904,859.0,31.0
2905,880.0,19.0
2906,1380.0,8.0
2907,1668.0,1.0
2908,1320.0,-5.0
2909,832.0,-18.0
2910,831.0,-36.0
2911,1331.0,-48.0
2912,1622.0,-50.0
2913,1327.0,-48.0
2914,788.0,-50.0
2915,770.0,-58.0
2916,1221.0,-63.0
2917,1572.0,-63.0
2918,1356.0,-63.0
2919,895.0,-70.0
2920,835.0,-82.0
2921,1220.0,-90.0
2922,1583.0,-90.0
2923,1350.0,-87.0
2924,848.0,-87.0
2925,760.0,-94.0
2926,1215.0,-99.0
2927,1591.0,-97.0
2928,1373.0,-92.0
2929,895.0,-88.0
2930,775.0,-85.0
2931,1241.0,-75.0
2932,1640.0,-57.0
2933,761.0,16.0
2934,1220.0,13.0
2935,1631.0,13.0
2936,902.0,11.0
2937,715.0,2.0
2938,1083.0,-6.0
2939,1586.0,-7.0
2940,1479.0,-4.0
2941,971.0,-5.0
2942,747.0,-11.0
2943,1123.0,-14.0
2944,1574.0,-7.0
2945,1471.0,6.0
2946,975.0,16.0
2947,745.0,18.0
2948,1078.0,16.0
2949,1533.0,16.0
2950,1469.0,17.0
2951,955.0,14.0
2952,755.0,6.0
2953,1124.0,2.0
2954,1584.0,8.0
2955,1537.0,20.0
2956,1026.0,40.0
2957,1487.0,45.0
2958,1536.0,49.0
2959,1094.0,46.0
2960,788.0,34.0
2961,1056.0,21.0
2962,1529.0,16.0
2963,1607.0,20.0
2964,1158.0,27.0
2965,807.0,31.0
2966,1069.0,32.0
2967,1586.0,35.0
2968,1666.0,39.0
2969,1200.0,36.0
2970,824.0,25.0
2971,1099.0,13.0
2972,1629.0,9.0
2973,1751.0,15.0
2974,1339.0,25.0
2975,942.0,31.0
2976,1147.0,36.0
2977,1671.0,45.0
2978,1783.0,57.0
2979,1327.0,66.0
2980,895.0,65.0
2981,1099.0,61.0
2982,1633.0,62.0
2983,1801.0,70.0
2984,1370.0,79.0
2985,931.0,84.0
2986,1082.0,88.0
2987,1601.0,96.0
2988,1799.0,107.0
2989,1398.0,113.0
2990,945.0,104.0
2991,1055.0,86.0
2992,1602.0,68.0
2993,1821.0,55.0
2994,1432.0,43.0
2995,967.0,28.0
2996,1060.0,13.0
2997,1588.0,6.0
2998,1848.0,7.0
2999,1493.0,8.0
3000,1056.0,2.0
3001,1200.0,-7.0
3002,1796.0,-13.0
3003,2130.0,-12.0
3004,1832.0,-9.0
3005,1370.0,-11.0
3006,1424.0,-17.0
3007,1874.0,-19.0
3008,2087.0,-15.0
3009,1663.0,-9.0
3010,1103.0,-7.0
3011,1036.0,-6.0
3012,1572.0,4.0
3013,1940.0,32.0
3014,1652.0,71.0
3015,1152.0,113.0
3016,1109.0,153.0
3017,1520.0,191.0
3018,1811.0,221.0
3019,1582.0,229.0
3020,1095.0,204.0
3021,1050.0,145.0
3022,1494.0,70.0
3023,1829.0,-5.0
3024,1602.0,-72.0
3025,1090.0,-127.0
3026,1026.0,-166.0
3027,1517.0,-181.0
3028,1891.0,-174.0
3029,1472.0,-157.0
3030,1852.0,-158.0
3031,1651.0,-154.0
3032,1153.0,-152.0
3033,1062.0,-150.0
3034,1524.0,-143.0
3035,1908.0,-127.0
3036,1721.0,-107.0
3037,1211.0,-92.0
3038,1071.0,-85.0
3039,1449.0,-80.0
3040,1900.0,-72.0
3041,1759.0,-65.0
3042,1257.0,-65.0
3043,1096.0,-70.0
3044,1463.0,-72.0
3045,1893.0,-64.0
3046,1783.0,-49.0
3047,1294.0,-36.0
3048,1092.0,-31.0
3049,1464.0,-27.0
3050,1916.0,-21.0
3051,1815.0,-14.0
3052,1302.0,-14.0
3053,1057.0,-20.0
3054,1460.0,-26.0
3055,1889.0,-23.0
3056,1848.0,-15.0
3057,1351.0,-10.0
3058,1084.0,-12.0
3059,1434.0,-15.0
3060,1897.0,-11.0
3061,1816.0,-5.0
3062,1301.0,-2.0
3063,1043.0,-7.0
3064,1377.0,-13.0
3065,1855.0,-14.0
3066,1815.0,-10.0
3067,1312.0,-8.0
3068,1007.0,-12.0
3069,1309.0,-15.0
3070,1775.0,-12.0
3071,1788.0,-5.0
3072,1288.0,-4.0
3073,955.0,-12.0
3074,1231.0,-25.0
3075,1698.0,-32.0
3076,1738.0,-34.0
3077,1212.0,-54.0
3078,1722.0,-56.0
3079,1777.0,-53.0
3080,1288.0,-53.0
3081,937.0,-60.0
3082,1175.0,-71.0
3083,1674.0,-76.0
3084,1746.0,-76.0
3085,1288.0,-77.0
3086,926.0,-84.0
3087,1108.0,-90.0
3088,1656.0,-87.0
3089,1772.0,-74.0
3090,1108.0,-42.0
3091,1626.0,-32.0
3092,1768.0,-19.0
3093,1358.0,-11.0
3094,961.0,-14.0
3095,1112.0,-21.0
3096,1618.0,-23.0
3097,1760.0,-17.0
3098,1329.0,-9.0
3099,942.0,-6.0
3100,1114.0,-4.0
3101,1617.0,1.0
3102,1779.0,13.0
3103,1352.0,24.0
3104,934.0,27.0
3105,1045.0,26.0
3106,1555.0,28.0
3107,1766.0,36.0
3108,1380.0,43.0
3109,950.0,42.0
3110,1080.0,37.0
3111,1537.0,35.0
3112,1766.0,41.0
3113,1400.0,47.0
3114,927.0,47.0
3115,1017.0,42.0
3116,1493.0,40.0
3117,1775.0,43.0
3118,1449.0,45.0
3119,994.0,42.0
3120,1027.0,36.0
3121,1521.0,36.0
3122,1790.0,45.0
3123,1455.0,55.0
3124,969.0,57.0
3125,997.0,53.0
3126,1479.0,48.0
3127,1784.0,50.0
3128,1458.0,52.0
3129,986.0,52.0
3130,1021.0,49.0
3131,1510.0,53.0
3132,1808.0,64.0
3133,1527.0,77.0
3134,1028.0,81.0
3135,975.0,77.0
3136,1451.0,71.0
3137,1816.0,69.0
3138,1565.0,68.0
3139,1065.0,62.0
3140,981.0,53.0
3141,1402.0,50.0
3142,1774.0,58.0
3143,1572.0,70.0
3144,1391.0,39.0
3145,1801.0,35.0
3146,1664.0,34.0
3147,1155.0,30.0
3148,945.0,20.0
3149,1354.0,14.0
3150,1783.0,17.0
3151,1692.0,28.0
3152,1177.0,38.0
3153,952.0,43.0
3154,1336.0,49.0
3155,1767.0,59.0
3156,1667.0,70.0
3157,1150.0,72.0
3158,865.0,64.0
3159,1197.0,53.0
3160,1670.0,47.0
3161,1606.0,46.0
3162,1118.0,41.0
3163,853.0,32.0
3164,1152.0,24.0
3165,1589.0,23.0
3166,1562.0,26.0
3167,1117.0,24.0
3168,881.0,12.0
3169,1158.0,-4.0
3170,1609.0,-19.0
3171,1588.0,-30.0
3172,1119.0,-44.0
3173,834.0,-62.0
3174,1121.0,-77.0
3175,1632.0,-82.0
3176,1651.0,-80.0
3177,1145.0,-76.0
3178,833.0,-77.0
3179,1204.0,-76.0
3180,1783.0,-69.0
3181,1890.0,-54.0
3182,1459.0,-43.0
3183,1205.0,-38.0
3184,1507.0,-37.0
3185,2005.0,-32.0
3186,1964.0,-23.0
3187,1362.0,-18.0
3188,940.0,-17.0
3189,1154.0,-16.0
3190,1647.0,-4.0
3191,1728.0,21.0
3192,1278.0,55.0
3193,903.0,93.0
3194,1137.0,138.0
3195,1601.0,190.0
3196,1684.0,240.0
3197,1256.0,270.0
3198,869.0,265.0
3199,1038.0,226.0
3200,1541.0,166.0
3201,1660.0,94.0
3202,1240.0,16.0
3203,842.0,-58.0
3204,1020.0,-116.0
3205,1544.0,-146.0
3206,1716.0,-150.0
3207,1255.0,-141.0
3208,838.0,-133.0
3209,1033.0,-128.0
3210,1554.0,-122.0
3211,1691.0,-114.0
3212,1305.0,-109.0
3213,860.0,-110.0
3214,977.0,-113.0
3215,1504.0,-108.0
3216,1702.0,-93.0
3217,1334.0,-76.0
3218,985.0,-58.0
3219,1466.0,-49.0
3220,1707.0,-35.0
3221,1370.0,-23.0
3222,912.0,-21.0
3223,981.0,-24.0
3224,1481.0,-25.0
3225,1727.0,-21.0
3226,1387.0,-16.0
3227,914.0,-16.0
3228,941.0,-20.0
3229,1424.0,-19.0
3230,1717.0,-11.0
3231,1427.0,-3.0
3232,935.0,-1.0
3233,933.0,-4.0
3234,1408.0,-4.0
3235,1718.0,1.0
3236,1459.0,9.0
3237,973.0,10.0
3238,926.0,4.0
3239,1374.0,0.0
3240,1678.0,2.0
3241,1394.0,4.0
3242,901.0,1.0
3243,884.0,-5.0
3244,1324.0,-8.0
3245,1662.0,-3.0
3246,1365.0,4.0
3247,875.0,8.0
3248,803.0,6.0
3249,1282.0,5.0
3250,1643.0,8.0
3251,1415.0,10.0
3252,871.0,3.0
3253,730.0,-10.0
3254,1488.0,-29.0
3255,1312.0,-31.0
3256,840.0,-37.0
3257,710.0,-46.0
3258,1122.0,-51.0
3259,1508.0,-48.0
3260,1313.0,-41.0
3261,782.0,-37.0
3262,687.0,-41.0
3263,1116.0,-46.0
3264,1487.0,-49.0
3265,1356.0,-53.0
3266,1467.0,-88.0
3267,1352.0,-77.0
3268,856.0,-66.0
3269,633.0,-60.0
3270,1012.0,-53.0
3271,1473.0,-41.0
3272,1366.0,-27.0
3273,867.0,-16.0
3274,641.0,-12.0
3275,1018.0,-8.0
3276,1480.0,0.0
3277,1389.0,10.0
3278,900.0,14.0
3279,659.0,9.0
3280,988.0,3.0
3281,1438.0,4.0
3282,1387.0,11.0
3283,893.0,16.0
3284,643.0,16.0
3285,958.0,17.0
3286,1439.0,25.0
3287,1408.0,37.0
3288,903.0,46.0
3289,574.0,47.0
3290,856.0,46.0
3291,1355.0,50.0
3292,1373.0,55.0
3293,909.0,56.0
3294,620.0,49.0
3295,910.0,41.0
3296,1402.0,39.0
3297,1435.0,43.0
3298,976.0,46.0
3299,625.0,40.0
3300,881.0,32.0
3301,1381.0,26.0
3302,1422.0,23.0
3303,984.0,17.0
3304,648.0,8.0
3305,868.0,2.0
3306,1351.0,7.0
3307,1408.0,24.0
3308,940.0,42.0
3309,617.0,54.0
3310,873.0,61.0
3311,1356.0,67.0
3312,1440.0,74.0
3313,1012.0,75.0
3314,646.0,67.0
3315,857.0,57.0
3316,1342.0,51.0
3317,1452.0,52.0
3318,1028.0,51.0
3319,615.0,43.0
3320,843.0,32.0
3321,1397.0,28.0
3322,1490.0,31.0
3323,1060.0,35.0
3324,638.0,36.0
3325,803.0,36.0
3326,1336.0,41.0
3327,1532.0,42.0
3328,1111.0,47.0
3329,736.0,46.0
3330,849.0,41.0
3331,1351.0,39.0
3332,1593.0,42.0
3333,1228.0,43.0
3334,753.0,37.0
3335,814.0,29.0
3336,1280.0,28.0
3337,1515.0,34.0
3338,1152.0,42.0
3339,663.0,44.0
3340,703.0,40.0
3341,1167.0,40.0
3342,1435.0,47.0
3343,1097.0,54.0
3344,681.0,56.0
3345,751.0,52.0
3346,1258.0,48.0
3347,988.0,-28.0
3348,1010.0,-16.0
3349,1581.0,-8.0
3350,1973.0,-4.0
3351,1674.0,-6.0
3352,1097.0,-17.0
3353,928.0,-33.0
3354,1290.0,-42.0
3355,1591.0,-35.0
3356,1314.0,-15.0
3357,788.0,10.0
3358,734.0,41.0
3359,1224.0,84.0
3360,1644.0,140.0
3361,1452.0,198.0
3362,918.0,242.0
3363,769.0,262.0
3364,1183.0,255.0
3365,1583.0,223.0
3366,1374.0,165.0
3367,865.0,81.0
3368,753.0,-15.0
3369,1186.0,-100.0
3370,1579.0,-156.0
3371,1417.0,-180.0
3372,883.0,-179.0
3373,697.0,-165.0
3374,1103.0,-140.0
3375,1550.0,-111.0
3376,1444.0,-87.0
3377,951.0,-80.0
3378,761.0,-88.0
3379,1131.0,-99.0
3380,1580.0,-102.0
3381,1495.0,-96.0
3382,1017.0,-90.0
3383,824.0,-87.0
3384,1179.0,-85.0
3385,1629.0,-78.0
3386,1528.0,-70.0
3387,1058.0,-67.0
3388,834.0,-69.0
3389,1166.0,-69.0
3390,1613.0,-60.0
3391,1577.0,-43.0
3392,1101.0,-29.0
3393,829.0,-21.0
3394,1127.0,-14.0
3395,1615.0,-3.0
3396,1599.0,9.0
3397,843.0,15.0
3398,1149.0,10.0
3399,1650.0,9.0
3400,1665.0,11.0
3401,1187.0,9.0
3402,846.0,2.0
3403,1117.0,-7.0
3404,1608.0,-10.0
3405,1644.0,-8.0
3406,1138.0,-9.0
3407,791.0,-16.0
3408,1065.0,-23.0
3409,1556.0,-22.0
3410,1586.0,-14.0
3411,1141.0,-6.0
3412,800.0,-3.0
3413,1039.0,-4.0
3414,1544.0,-3.0
3415,1597.0,0.0
3416,1130.0,-3.0
3417,742.0,-17.0
3418,968.0,-35.0
3419,1480.0,-49.0
3420,1542.0,-55.0
3421,1067.0,-61.0
3422,687.0,-70.0
3423,871.0,-78.0
3424,1382.0,-77.0
3425,1474.0,-69.0
3426,1087.0,-62.0
3427,728.0,-62.0
3428,901.0,-68.0
3429,1400.0,-71.0
3430,1533.0,-71.0
3431,1115.0,-74.0
3432,714.0,-84.0
3433,880.0,-99.0
3434,1370.0,-108.0
3435,1530.0,-109.0
3436,1125.0,-109.0
3437,685.0,-110.0
3438,804.0,-110.0
3439,1315.0,-99.0
3440,1542.0,-79.0
3441,1167.0,-58.0
3442,719.0,-43.0
3443,821.0,-35.0
3444,1332.0,-28.0
3445,1554.0,-17.0
3446,1154.0,-11.0
3447,717.0,-13.0
3448,791.0,-21.0
3449,1296.0,-25.0
3450,1535.0,-22.0
3451,1210.0,-17.0
3452,752.0,-16.0
3453,802.0,-16.0
3454,1269.0,-10.0
3455,1528.0,2.0
3456,1221.0,16.0
3457,714.0,21.0
3458,746.0,18.0
3459,1256.0,16.0
3460,1568.0,19.0
3461,1238.0,23.0
3462,766.0,23.0
3463,755.0,20.0
3464,1221.0,22.0
3465,1524.0,31.0
3466,1235.0,40.0
3467,732.0,33.0
3468,1182.0,28.0
3469,1530.0,29.0
3470,1319.0,33.0
3471,815.0,34.0
3472,723.0,32.0
3473,1130.0,34.0
3474,1487.0,41.0
3475,1290.0,49.0
3476,779.0,48.0
3477,681.0,40.0
3478,1124.0,33.0
3479,1513.0,33.0
3480,1313.0,39.0
3481,828.0,42.0
3482,717.0,42.0
3483,1152.0,43.0
3484,1511.0,48.0
3485,1309.0,53.0
3486,854.0,49.0
3487,749.0,37.0
3488,1170.0,26.0
3489,1551.0,23.0
3490,1389.0,26.0
3491,881.0,29.0
3492,715.0,31.0
3493,1141.0,35.0
3494,1578.0,46.0
3495,1459.0,58.0
3496,965.0,64.0
3497,777.0,62.0
3498,1159.0,59.0
3499,1601.0,64.0
3500,1481.0,73.0
3501,977.0,77.0
3502,1108.0,73.0
3503,1555.0,75.0
3504,1433.0,80.0
3505,924.0,82.0
3506,693.0,79.0
3507,1071.0,78.0
3508,1550.0,84.0
3509,1493.0,94.0
3510,1006.0,98.0
3511,731.0,91.0
3512,1055.0,80.0
3513,1549.0,71.0
3514,997.0,9.0
3515,1488.0,0.0
3516,1512.0,-1.0
3517,1034.0,0.0
3518,715.0,0.0
3519,1007.0,2.0
3520,1516.0,11.0
3521,1564.0,22.0
3522,1183.0,28.0
3523,942.0,21.0
3524,1258.0,9.0
3525,1839.0,0.0
3526,1922.0,-2.0
3527,1455.0,-6.0
3528,1048.0,-14.0
3529,1197.0,-21.0
3530,1591.0,-18.0
3531,1654.0,-7.0
3532,1159.0,6.0
3533,757.0,19.0
3534,939.0,38.0
3535,1491.0,73.0
3536,1608.0,122.0
3537,1143.0,174.0
3538,768.0,215.0
3539,977.0,238.0
3540,1470.0,244.0
3541,1569.0,227.0
3542,1138.0,182.0
3543,700.0,110.0
3544,885.0,27.0
3545,1399.0,-47.0
3546,1536.0,-100.0
3547,1108.0,-133.0
3548,691.0,-150.0
3549,822.0,-153.0
3550,1330.0,-140.0
3551,1519.0,-118.0
3552,1156.0,-101.0
3553,751.0,-96.0
3554,884.0,-103.0
3555,1373.0,-112.0
3556,1591.0,-117.0
3557,1205.0,-122.0
3558,759.0,-132.0
3559,1372.0,-144.0
3560,1604.0,-137.0
3561,1268.0,-126.0
3562,809.0,-120.0
3563,872.0,-113.0
3564,1345.0,-100.0
3565,1603.0,-79.0
3566,1276.0,-57.0
3567,820.0,-43.0
3568,847.0,-36.0
3569,1344.0,-31.0
3570,1631.0,-22.0
3571,1294.0,-14.0
3572,822.0,-13.0
3573,853.0,-15.0
3574,1323.0,-14.0
3575,1604.0,-7.0
3576,1309.0,0.0
3577,856.0,0.0
3578,833.0,-5.0
3579,1278.0,-9.0
3580,1613.0,-6.0
3581,1363.0,0.0
3582,888.0,0.0
3583,829.0,-4.0
3584,1243.0,-6.0
3585,1563.0,-1.0
3586,1288.0,3.0
3587,840.0,2.0
3588,821.0,-3.0
3589,1284.0,-8.0
3590,1568.0,-5.0
3591,613.0,-20.0
3592,1029.0,-24.0
3593,1435.0,-26.0
3594,1271.0,-27.0
3595,721.0,-36.0
3596,593.0,-50.0
3597,1032.0,-62.0
3598,1449.0,-65.0
3599,1287.0,-64.0
3600,763.0,-67.0
3601,595.0,-75.0
3602,1025.0,-81.0
3603,1461.0,-79.0
3604,1293.0,-71.0
3605,771.0,-67.0
3606,580.0,-66.0
3607,951.0,-64.0
3608,1388.0,-53.0
3609,1314.0,-38.0
3610,837.0,-27.0
3611,611.0,-22.0
3612,981.0,-17.0
3613,1419.0,-6.0
3614,564.0,52.0
3615,856.0,50.0
3616,1323.0,52.0
3617,1366.0,56.0
3618,911.0,57.0
3619,607.0,53.0
3620,902.0,49.0
3621,1390.0,52.0
3622,1426.0,61.0
3623,907.0,66.0
3624,580.0,62.0
3625,875.0,53.0
3626,1374.0,47.0
3627,1416.0,43.0
3628,940.0,37.0
3629,582.0,28.0
3630,817.0,23.0
3631,1333.0,30.0
3632,1405.0,46.0
3633,981.0,61.0
3634,600.0,67.0
3635,832.0,67.0
3636,1332.0,67.0
3637,1428.0,69.0
3638,658.0,47.0
3639,857.0,40.0
3640,1385.0,36.0
3641,1552.0,37.0
3642,1184.0,39.0
3643,758.0,36.0
3644,894.0,34.0
3645,1377.0,41.0
3646,1541.0,55.0
3647,1180.0,69.0
3648,738.0,73.0
3649,795.0,70.0
3650,1273.0,69.0
3651,1482.0,72.0
3652,1106.0,76.0
3653,669.0,76.0
3654,761.0,75.0
3655,1300.0,78.0
3656,1517.0,87.0
3657,1143.0,92.0
3658,678.0,85.0
3659,766.0,68.0
3660,1275.0,48.0
3661,1471.0,32.0
3662,1071.0,-26.0
3663,1583.0,-28.0
3664,1914.0,-23.0
3665,1553.0,-17.0
3666,964.0,-17.0
3667,854.0,-23.0
3668,1279.0,-25.0
3669,1551.0,-17.0
3670,1279.0,1.0
3671,795.0,24.0
3672,751.0,53.0
3673,1215.0,94.0
3674,1562.0,144.0
3675,1321.0,189.0
3676,805.0,214.0
3677,688.0,210.0
3678,1130.0,181.0
3679,1531.0,132.0
3680,1322.0,67.0
3681,808.0,-8.0
3682,706.0,-85.0
3683,1097.0,-143.0
3684,1500.0,-172.0
3685,1351.0,-177.0
3686,872.0,-170.0
3687,710.0,-160.0
3688,1139.0,-148.0
3689,1554.0,-134.0
3690,1367.0,-121.0
3691,858.0,-118.0
3692,725.0,-123.0
3693,1117.0,-126.0
3694,1535.0,-119.0
3695,1399.0,-107.0
3696,925.0,-95.0
3697,750.0,-89.0
3698,1135.0,-80.0
3699,951.0,-38.0
3700,752.0,-37.0
3701,1122.0,-38.0
3702,1579.0,-35.0
3703,1505.0,-30.0
3704,980.0,-28.0
3705,762.0,-31.0
3706,1149.0,-31.0
3707,1615.0,-23.0
3708,1566.0,-9.0
3709,1068.0,0.0
3710,819.0,1.0
3711,1098.0,0.0
3712,1546.0,3.0
3713,1554.0,8.0
3714,1115.0,9.0
3715,803.0,3.0
3716,1099.0,-1.0
3717,1602.0,1.0
3718,1589.0,11.0
3719,1109.0,20.0
3720,794.0,22.0
3721,1071.0,22.0
3722,1559.0,24.0
3723,1571.0,27.0
3724,1132.0,24.0
3725,812.0,13.0
3726,1067.0,0.0
3727,1540.0,-3.0
3728,1585.0,1.0
3729,1106.0,5.0
3730,758.0,3.0
3731,982.0,-1.0
3732,1456.0,-2.0
3733,1492.0,-1.0
3734,1034.0,-4.0
3735,677.0,-12.0
3736,911.0,-21.0
3737,1417.0,-23.0
3738,1494.0,-18.0
3739,1051.0,-14.0
3740,710.0,-18.0
3741,917.0,-28.0
3742,1401.0,-36.0
3743,1536.0,-42.0
3744,1090.0,-53.0
3745,672.0,-71.0
3746,877.0,-89.0
3747,1363.0,-100.0
3748,1485.0,-100.0
3749,1088.0,-96.0
3750,708.0,-93.0
3751,852.0,-89.0
3752,1334.0,-77.0
3753,1503.0,-59.0
3754,1137.0,-42.0
3755,756.0,-35.0
3756,885.0,-34.0
3757,1389.0,-32.0
3758,1552.0,-27.0
3759,1131.0,-25.0
3760,720.0,-28.0
3761,850.0,-34.0
3762,1341.0,-35.0
3763,1523.0,-27.0
3764,1175.0,-17.0
3765,780.0,-10.0
3766,862.0,-6.0
3767,1350.0,3.0
3768,1549.0,18.0
3769,1165.0,32.0
3770,717.0,36.0
3771,812.0,33.0
3772,1343.0,28.0
3773,1611.0,27.0
3774,1289.0,26.0
3775,794.0,21.0
3776,812.0,16.0
3777,1317.0,61.0
3778,820.0,57.0
3779,771.0,43.0
3780,1215.0,28.0
3781,1560.0,21.0
3782,1287.0,20.0
3783,784.0,18.0
3784,739.0,14.0
3785,1199.0,15.0
3786,1563.0,22.0
3787,1321.0,31.0
3788,831.0,33.0
3789,755.0,27.0
3790,1196.0,22.0
3791,1553.0,23.0
3792,1365.0,25.0
3793,879.0,22.0
3794,776.0,13.0
3795,1194.0,5.0
3796,1572.0,5.0
3797,1399.0,9.0
3798,868.0,10.0
3799,722.0,8.0
3800,1169.0,9.0
3801,1604.0,18.0
3802,1470.0,28.0
3803,991.0,34.0
3804,784.0,33.0
3805,1140.0,32.0
3806,1568.0,38.0
3807,1470.0,45.0
3808,972.0,47.0
3809,787.0,40.0
3810,1148.0,32.0
3811,1539.0,31.0
3812,1392.0,35.0
3813,874.0,39.0
3814,706.0,39.0
3815,1100.0,41.0
3816,1531.0,49.0
3817,1427.0,58.0
3818,897.0,59.0
3819,666.0,50.0
3820,1021.0,39.0
3821,1501.0,31.0
3822,1443.0,26.0
3823,932.0,17.0
3824,663.0,0.0
3825,1019.0,-17.0
3826,1485.0,-26.0
3827,1437.0,-29.0
3828,927.0,-32.0
3829,679.0,-37.0
3830,1036.0,-41.0
3831,1536.0,-38.0
3832,1570.0,-31.0
3833,1156.0,-27.0
3834,897.0,-30.0
3835,1246.0,-33.0
3836,1855.0,-30.0
3837,1944.0,-21.0
3838,1426.0,-16.0
3839,1014.0,-17.0
3840,1223.0,-20.0
3841,1648.0,-16.0
3842,1608.0,-2.0
3843,1078.0,15.0
3844,739.0,33.0
3845,1038.0,59.0
3846,1537.0,99.0
3847,1615.0,152.0
3848,791.0,-154.0
3849,985.0,-156.0
3850,1514.0,-144.0
3851,1661.0,-126.0
3852,1236.0,-114.0
3853,818.0,-112.0
3854,1005.0,-115.0
3855,1503.0,-112.0
3856,1641.0,-98.0
3857,1239.0,-80.0
3858,855.0,-65.0
3859,1025.0,-53.0
3860,1530.0,-37.0
3861,1698.0,-17.0
3862,895.0,5.0
3863,1003.0,6.0
3864,1536.0,9.0
3865,1766.0,15.0
3866,1403.0,18.0
3867,974.0,13.0
3868,1058.0,3.0
3869,1545.0,0.0
3870,1753.0,4.0
3871,1441.0,11.0
3872,1008.0,13.0
3873,1089.0,12.0
3874,1575.0,13.0
3875,1823.0,20.0
3876,1461.0,28.0
3877,992.0,30.0
3878,1039.0,28.0
3879,1565.0,30.0
3880,1864.0,37.0
3881,1510.0,43.0
3882,978.0,41.0
3883,1024.0,33.0
3884,1506.0,28.0
3885,1809.0,29.0
3886,1524.0,32.0
3887,1069.0,28.0
3888,1075.0,19.0
3889,1511.0,11.0
3890,1783.0,9.0
3891,1492.0,8.0
3892,1011.0,1.0
3893,991.0,-10.0
3894,1467.0,-19.0
3895,1757.0,-21.0
3896,1474.0,-22.0
3897,962.0,-26.0
3898,897.0,-33.0
3899,1348.0,-35.0
3900,1700.0,-29.0
3901,1430.0,-21.0
3902,907.0,-22.0
3903,861.0,-33.0
3904,1322.0,-44.0
3905,1692.0,-52.0
3906,1450.0,-57.0
3907,923.0,-67.0
3908,862.0,-81.0
3909,1334.0,-93.0
3910,1716.0,-97.0
3911,1512.0,-99.0
3912,1007.0,-106.0
3913,884.0,-117.0
3914,1288.0,-123.0
3915,1695.0,-119.0
3916,1543.0,-108.0
3917,1054.0,-99.0
3918,902.0,-93.0
3919,1296.0,-84.0
3920,1663.0,-68.0
3921,1482.0,-48.0
3922,1048.0,-33.0
3923,914.0,-24.0
3924,1318.0,-17.0
3925,1719.0,-6.0
3926,1572.0,5.0
3927,1048.0,10.0
3928,863.0,8.0
3929,1292.0,5.0
3930,1740.0,7.0
3931,1587.0,12.0
3932,1071.0,10.0
3933,867.0,3.0
3934,1242.0,-3.0
3935,1696.0,-1.0
3936,1584.0,7.0
3937,1098.0,14.0
3938,885.0,15.0
3939,1256.0,15.0
3940,1688.0,19.0
3941,1599.0,26.0
3942,1104.0,26.0
3943,855.0,19.0
3944,1181.0,12.0
3945,1624.0,11.0
3946,1095.0,14.0
3947,895.0,8.0
3948,1247.0,3.0
3949,1711.0,6.0
3950,1659.0,14.0
3951,1176.0,19.0
3952,896.0,16.0
3953,1185.0,9.0
3954,1636.0,5.0
3955,1619.0,4.0
3956,1152.0,-1.0
3957,843.0,-10.0
3958,1209.0,28.0
3959,889.0,40.0
3960,1129.0,46.0
3961,1633.0,51.0
3962,1694.0,53.0
3963,1246.0,46.0
3964,908.0,28.0
3965,1158.0,7.0
3966,1658.0,-4.0
3967,1695.0,-5.0
3968,1239.0,-3.0
3969,924.0,-2.0
3970,1153.0,0.0
3971,1654.0,8.0
3972,1731.0,22.0
3973,1284.0,33.0
3974,872.0,36.0
3975,1059.0,34.0
3976,1545.0,36.0
3977,865.0,-16.0
3978,1028.0,-37.0
3979,1515.0,-51.0
3980,1688.0,-54.0
3981,1305.0,-51.0
3982,857.0,-49.0
3983,972.0,-45.0
3984,1492.0,-34.0
3985,1777.0,-18.0
3986,1490.0,-4.0
3987,1140.0,0.0
3988,1328.0,-3.0
3989,1855.0,-3.0
3990,2039.0,2.0
3991,1520.0,10.0
3992,938.0,13.0
3993,966.0,12.0
3994,1462.0,13.0
3995,1714.0,21.0
3996,1369.0,32.0
3997,896.0,47.0
3998,928.0,71.0
3999,1408.0,111.0
4000,1704.0,165.0
4001,1372.0,215.0
4002,868.0,241.0
4003,887.0,232.0
4004,1372.0,193.0
4005,1663.0,133.0
4006,1330.0,59.0
4007,830.0,-20.0
4008,823.0,-90.0
4009,1295.0,-133.0
4010,1591.0,-146.0
4011,1337.0,-138.0
4012,887.0,-127.0
4013,857.0,-119.0
4014,1302.0,-112.0
4015,1627.0,-102.0
4016,1345.0,-94.0
4017,856.0,-94.0
4018,804.0,-99.0
4019,1279.0,-101.0
4020,1622.0,-94.0
4021,1404.0,-83.0
4022,914.0,-74.0
4023,813.0,-68.0
4024,1261.0,-57.0
4025,1659.0,-40.0
4026,1473.0,-21.0
4027,951.0,-10.0
4028,821.0,-8.0
4029,1231.0,-9.0
4030,1635.0,-6.0
4031,1485.0,0.0
4032,1000.0,2.0
4033,859.0,1.0
4034,1273.0,4.0
4035,1653.0,16.0
4036,1503.0,31.0
4037,1029.0,40.0
4038,882.0,41.0
4039,1266.0,40.0
4040,1694.0,43.0
4041,1566.0,47.0
4042,1030.0,47.0
4043,835.0,41.0
4044,1251.0,37.0
4045,1651.0,42.0
4046,1533.0,51.0
4047,1056.0,56.0
4048,876.0,55.0
4049,1256.0,52.0
4050,1648.0,55.0
4051,1103.0,61.0
4052,838.0,55.0
4053,1203.0,46.0
4054,1629.0,42.0
4055,1568.0,40.0
4056,1031.0,34.0
4057,757.0,23.0
4058,1100.0,14.0
4059,1553.0,14.0
4060,1514.0,21.0
4061,999.0,26.0
4062,703.0,25.0
4063,1005.0,22.0
4064,1475.0,21.0
4065,1499.0,22.0
4066,1044.0,15.0
4067,770.0,0.0
4068,1078.0,-18.0
4069,1549.0,-32.0
4070,1549.0,-39.0
4071,1078.0,-48.0
4072,786.0,-62.0
4073,1094.0,-76.0
4074,1544.0,-81.0
4075,1521.0,-79.0
4076,1071.0,-76.0
4077,785.0,-74.0
4078,1074.0,-68.0
4079,1546.0,-51.0
4080,1601.0,-26.0
4081,1145.0,-2.0
4082,805.0,13.0
4083,1059.0,22.0
4084,1563.0,31.0
4085,1655.0,39.0
4086,1268.0,41.0
4087,879.0,33.0
4088,1047.0,23.0
4089,1540.0,19.0
4090,1634.0,23.0
4091,1238.0,28.0
4092,869.0,28.0
4093,1072.0,27.0
4094,1573.0,31.0
4095,1688.0,41.0
4096,1262.0,49.0
4097,886.0,51.0
4098,1036.0,50.0
4099,1517.0,52.0
4100,1678.0,56.0
4101,1255.0,57.0
4102,868.0,47.0
4103,1056.0,34.0
4104,1559.0,25.0
4105,1770.0,25.0
4106,1387.0,28.0
4107,935.0,26.0
4108,1071.0,21.0
4109,1543.0,18.0
4110,1744.0,18.0
4111,1370.0,15.0
4112,924.0,3.0
4113,1056.0,-9.0
4114,1543.0,-15.0
4115,1783.0,-8.0
4116,1436.0,3.0
4117,978.0,13.0
4118,1020.0,21.0
4119,1533.0,30.0
4120,1810.0,39.0
4121,1471.0,43.0
4122,994.0,34.0
4123,1036.0,18.0
4124,1513.0,5.0
4125,1805.0,2.0
4126,1533.0,3.0
4127,1113.0,2.0
4128,1148.0,-1.0
4129,1623.0,-1.0
4130,1895.0,4.0
4131,1593.0,9.0
4132,1111.0,6.0
4133,1093.0,-2.0
4134,1549.0,-9.0
4135,1844.0,-9.0
4136,1610.0,-5.0
4137,1215.0,-3.0
4138,1252.0,-1.0
4139,1701.0,6.0
4140,2011.0,23.0
4141,1752.0,42.0
4142,1234.0,52.0
4143,1175.0,49.0
4144,1649.0,40.0
4145,1996.0,30.0
4146,1741.0,18.0
4147,1246.0,3.0
4148,1172.0,-8.0
4149,1607.0,-7.0
4150,1958.0,10.0
4151,1725.0,35.0
4152,1246.0,54.0
4153,1177.0,61.0
4154,1613.0,60.0
4155,1986.0,54.0
4156,1779.0,42.0
4157,1324.0,21.0
4158,1342.0,-3.0
4159,1847.0,-23.0
4160,2276.0,-33.0
4161,2011.0,-37.0
4162,1444.0,-44.0
4163,1263.0,-56.0
4164,1648.0,-66.0
4165,2019.0,-68.0
4166,1791.0,-65.0
4167,1189.0,-63.0
4168,1005.0,-58.0
4169,1470.0,-43.0
4170,1928.0,-12.0
4171,1823.0,28.0
4172,1289.0,63.0
4173,1055.0,83.0
4174,1377.0,87.0
4175,1799.0,77.0
4176,1731.0,48.0
4177,1271.0,-3.0
4178,1048.0,-70.0
4179,1391.0,-134.0
4180,1821.0,-180.0
4181,1726.0,-204.0
4182,1232.0,-212.0
4183,1016.0,-211.0
4184,1365.0,-201.0
4185,1799.0,-184.0
4186,1757.0,-167.0
4187,1252.0,-160.0
4188,945.0,-163.0
4189,1299.0,-169.0
4190,1806.0,-165.0
4191,1260.0,-85.0
4192,959.0,-85.0
4193,1257.0,-87.0
4194,1777.0,-84.0
4195,1784.0,-74.0
4196,1263.0,-66.0
4197,940.0,-63.0
4198,1237.0,-61.0
4199,1707.0,-54.0
4200,1791.0,-43.0
4201,1376.0,-37.0
4202,1024.0,-39.0
4203,1242.0,-44.0
4204,1737.0,-41.0
4205,1767.0,-32.0
4206,1297.0,-23.0
4207,940.0,-21.0
4208,1211.0,-21.0
4209,1727.0,-18.0
4210,1813.0,-9.0
4211,1320.0,-1.0
4212,914.0,1.0
4213,1655.0,10.0
4214,1237.0,7.0
4215,805.0,-2.0
4216,1359.0,-21.0
4217,1539.0,-17.0
4218,1172.0,-10.0
4219,764.0,-10.0
4220,874.0,-14.0
4221,1375.0,-16.0
4222,1549.0,-14.0
4223,1207.0,-12.0
4224,803.0,-17.0
4225,900.0,-25.0
4226,1335.0,-30.0
4227,1530.0,-29.0
4228,1209.0,-29.0
4229,762.0,-34.0
4230,830.0,-42.0
4231,1340.0,-42.0
4232,1591.0,-31.0
4233,1235.0,-15.0
4234,774.0,-1.0
4235,849.0,10.0
4236,1353.0,24.0
4237,1623.0,41.0
4238,1304.0,54.0
4239,840.0,56.0
4240,852.0,52.0
4241,1287.0,50.0
4242,1607.0,54.0
4243,1327.0,62.0
4244,839.0,67.0
4245,827.0,69.0
4246,1314.0,76.0
4247,1611.0,90.0
4248,1300.0,104.0
4249,824.0,111.0
4250,785.0,112.0
4251,1245.0,112.0
4252,1560.0,117.0
4253,1319.0,120.0
4254,844.0,116.0
4255,763.0,107.0
4256,1191.0,100.0
4257,1523.0,101.0
4258,1340.0,104.0
4259,892.0,102.0
4260,802.0,93.0
4261,1223.0,84.0
4262,1570.0,80.0
4263,1340.0,77.0
4264,858.0,71.0
4265,763.0,60.0
4266,1215.0,53.0
4267,1624.0,54.0
4268,1450.0,58.0
4269,940.0,60.0
4270,834.0,58.0
4271,1272.0,60.0
4272,1658.0,69.0
4273,1490.0,80.0
4274,1005.0,84.0
4275,859.0,81.0
4276,1259.0,75.0
4277,1695.0,76.0
4278,1551.0,80.0
4279,1062.0,84.0
4280,904.0,86.0
4281,1294.0,92.0
4282,1731.0,105.0
4283,1614.0,120.0
4284,1124.0,127.0
4285,920.0,124.0
4286,1290.0,117.0
4287,1720.0,115.0
4288,1642.0,116.0
4289,1151.0,114.0
4290,917.0,106.0
4291,1274.0,101.0
4292,1720.0,102.0
4293,1665.0,108.0
4294,1216.0,110.0
4295,1000.0,103.0
4296,1321.0,95.0
4297,1775.0,90.0
4298,1738.0,88.0
4299,1249.0,81.0
4300,939.0,67.0
4301,1279.0,53.0
4302,1802.0,45.0
4303,1808.0,42.0
4304,1296.0,39.0
4305,986.0,32.0
4306,1270.0,28.0
4307,1699.0,32.0
4308,1631.0,41.0
4309,1189.0,46.0
4310,877.0,41.0
4311,1157.0,30.0
4312,1632.0,23.0
4313,1673.0,20.0
4314,1163.0,16.0
4315,874.0,7.0
4316,1176.0,-1.0
4317,1669.0,-6.0
4318,1704.0,-11.0
4319,1237.0,-25.0
4320,882.0,-53.0
4321,1096.0,-85.0
4322,1578.0,-111.0
4323,1664.0,-127.0
4324,1218.0,-136.0
4325,949.0,-144.0
4326,1216.0,-145.0
4327,1712.0,-135.0
4328,1787.0,-117.0
4329,1389.0,-100.0
4330,1071.0,-92.0
4331,1350.0,-91.0
4332,2149.0,-87.0
4333,1675.0,-89.0
4334,1196.0,-96.0
4335,1299.0,-99.0
4336,1761.0,-91.0
4337,1886.0,-68.0
4338,1432.0,-42.0
4339,967.0,-18.0
4340,1110.0,4.0
4341,1646.0,34.0
4342,1804.0,72.0
4343,1380.0,110.0
4344,955.0,137.0
4345,1086.0,152.0
4346,1582.0,154.0
4347,1774.0,141.0
4348,1370.0,106.0
4349,923.0,47.0
4350,1003.0,-23.0
4351,1508.0,-86.0
4352,1016.0,-150.0
4353,1069.0,-147.0
4354,1559.0,-137.0
4355,1821.0,-118.0
4356,1488.0,-97.0
4357,999.0,-81.0
4358,1067.0,-71.0
4359,1560.0,-61.0
4360,1837.0,-49.0
4361,1526.0,-39.0
4362,1011.0,-37.0
4363,1035.0,-40.0
4364,1540.0,-39.0
4365,1803.0,-29.0
4366,1076.0,-6.0
4367,1556.0,-3.0
4368,1857.0,2.0
4369,1578.0,8.0
4370,1098.0,6.0
4371,1048.0,-1.0
4372,1532.0,-7.0
4373,1892.0,-6.0
4374,1631.0,-3.0
4375,1149.0,-5.0
4376,1087.0,-9.0
4377,1478.0,-8.0
4378,1819.0,1.0
4379,1659.0,13.0
4380,1154.0,20.0
4381,1039.0,19.0
4382,1461.0,17.0
4383,1815.0,19.0
4384,1613.0,24.0
4385,1150.0,24.0
4386,1017.0,19.0
4387,1407.0,17.0
4388,1782.0,20.0
4389,1617.0,24.0
4390,1135.0,21.0
4391,992.0,11.0
4392,1323.0,0.0
4393,1714.0,-2.0
4394,1618.0,-3.0
4395,1127.0,-6.0
4396,914.0,-14.0
4397,1279.0,-22.0
4398,1710.0,-23.0
4399,1565.0,-20.0
4400,1062.0,-21.0
4401,907.0,-28.0
4402,1287.0,-35.0
4403,1734.0,-36.0
4404,1618.0,-34.0
4405,1076.0,-35.0
4406,843.0,-42.0
4407,1238.0,-49.0
4408,1701.0,-49.0
4409,1617.0,-45.0
4410,1092.0,-44.0
4411,827.0,-48.0
4412,1183.0,-51.0
4413,1665.0,-45.0
4414,1622.0,-32.0
4415,1139.0,-22.0
4416,888.0,-18.0
4417,1163.0,-17.0
4418,1637.0,-11.0
4419,1601.0,-3.0
4420,1104.0,-1.0
4421,835.0,-7.0
4422,1119.0,-13.0
4423,1586.0,-12.0
4424,1099.0,1.0
4425,767.0,3.0
4426,1056.0,4.0
4427,1535.0,11.0
4428,1566.0,22.0
4429,1119.0,27.0
4430,776.0,22.0
4431,1013.0,13.0
4432,1516.0,8.0
4433,1549.0,8.0
4434,1131.0,6.0
4435,814.0,0.0
4436,1107.0,-3.0
4437,757.0,-5.0
4438,999.0,-8.0
4439,1486.0,-5.0
4440,1597.0,3.0
4441,1159.0,11.0
4442,778.0,14.0
4443,931.0,16.0
4444,1420.0,24.0
4445,1608.0,37.0
4446,1188.0,47.0
4447,779.0,48.0
4448,953.0,43.0
4449,1433.0,39.0
4450,1585.0,41.0
4451,1177.0,42.0
4452,778.0,38.0
4453,939.0,33.0
4454,1419.0,34.0
4455,1582.0,41.0
4456,1171.0,46.0
4457,736.0,45.0
4458,848.0,40.0
4459,1335.0,41.0
4460,1540.0,48.0
4461,1200.0,54.0
4462,761.0,54.0
4463,856.0,49.0
4464,1341.0,48.0
4465,1592.0,52.0
4466,1206.0,54.0
4467,775.0,50.0
4468,851.0,39.0
4469,1338.0,31.0
4470,1586.0,27.0
4471,1604.0,24.0
4472,1304.0,38.0
4473,856.0,45.0
4474,839.0,46.0
4475,1331.0,48.0
4476,1613.0,53.0
4477,1324.0,57.0
4478,1228.0,75.0
4479,1528.0,77.0
4480,1312.0,81.0
4481,873.0,79.0
4482,818.0,71.0
4483,1226.0,63.0
4484,1543.0,62.0
4485,1318.0,63.0
4486,866.0,58.0
4487,751.0,47.0
4488,1184.0,34.0
4489,1559.0,23.0
4490,1364.0,12.0
4491,850.0,-4.0
4492,704.0,-22.0
4493,1095.0,-33.0
4494,1490.0,-31.0
4495,1384.0,-21.0
4496,873.0,-15.0
4497,720.0,-14.0
4498,1208.0,-16.0
4499,1709.0,-13.0
4500,1669.0,-10.0
4501,1292.0,-11.0
4502,1194.0,-19.0
4503,1607.0,-26.0
4504,1899.0,-28.0
4505,1670.0,-27.0
4506,1071.0,-30.0
4507,812.0,-37.0
4508,1107.0,-38.0
4509,1520.0,-23.0
4510,1457.0,6.0
4511,1002.0,48.0
4512,756.0,98.0
4513,1065.0,155.0
4514,975.0,-159.0
4515,709.0,-151.0
4516,1027.0,-150.0
4517,1493.0,-150.0
4518,1486.0,-147.0
4519,1010.0,-144.0
4520,695.0,-141.0
4521,1004.0,-132.0
4522,1457.0,-112.0
4523,1454.0,-83.0
4524,1031.0,-57.0
4525,744.0,-39.0
4526,1033.0,-25.0
4527,1532.0,-9.0
4528,733.0,15.0
4529,1024.0,9.0
4530,1511.0,6.0
4531,1575.0,5.0
4532,1112.0,2.0
4533,740.0,-4.0
4534,1017.0,-9.0
4535,1514.0,-5.0
4536,1632.0,7.0
4537,1200.0,18.0
4538,818.0,23.0
4539,1004.0,22.0
4540,1492.0,23.0
4541,1590.0,26.0
4542,1147.0,25.0
4543,781.0,18.0
4544,1024.0,10.0
4545,1538.0,9.0
4546,1675.0,16.0
4547,1272.0,24.0
4548,800.0,27.0
4549,919.0,26.0
4550,1666.0,32.0
4551,1247.0,30.0
4552,808.0,17.0
4553,936.0,1.0
4554,1385.0,-6.0
4555,1588.0,-3.0
4556,1241.0,4.0
4557,823.0,8.0
4558,915.0,10.0
4559,1367.0,12.0
4560,1541.0,15.0
4561,1150.0,12.0
4562,693.0,0.0
4563,820.0,-16.0
4564,1343.0,-27.0
4565,1555.0,-30.0
4566,1205.0,-30.0
4567,749.0,-34.0
4568,830.0,-40.0
4569,1299.0,-43.0
4570,1533.0,-40.0
4571,1187.0,-40.0
4572,771.0,-48.0
4573,836.0,-63.0
4574,1311.0,-74.0
4575,1591.0,-77.0
4576,1280.0,-74.0
4577,821.0,-70.0
4578,838.0,-66.0
4579,1292.0,-55.0
4580,1567.0,-39.0
4581,1264.0,-25.0
4582,821.0,-21.0
4583,829.0,-25.0
4584,1291.0,-25.0
4585,1557.0,-17.0
4586,1292.0,-5.0
4587,818.0,3.0
4588,768.0,8.0
4589,1225.0,15.0
4590,1573.0,24.0
4591,1350.0,29.0
4592,848.0,25.0
4593,740.0,14.0
4594,1239.0,5.0
4595,1577.0,4.0
4596,1319.0,6.0
4597,818.0,5.0
4598,741.0,-1.0
4599,1167.0,-5.0
4600,1528.0,-4.0
4601,1323.0,-1.0
4602,839.0,-1.0
4603,733.0,-6.0
4604,1175.0,-7.0
4605,1549.0,-1.0
4606,1325.0,7.0
4607,852.0,8.0
4608,1128.0,-6.0
4609,1526.0,-8.0
4610,1379.0,-8.0
4611,904.0,-11.0
4612,729.0,-17.0
4613,1101.0,-20.0
4614,1499.0,-13.0
4615,1390.0,-3.0
4616,891.0,2.0
4617,700.0,1.0
4618,1081.0,-1.0
4619,1557.0,1.0
4620,1477.0,6.0
4621,955.0,8.0
4622,732.0,5.0
4623,1082.0,3.0
4624,1534.0,9.0
4625,1406.0,16.0
4626,974.0,18.0
4627,768.0,11.0
4628,1503.0,22.0
4629,1037.0,23.0
4630,739.0,19.0
4631,1502.0,11.0
4632,1506.0,14.0
4633,1041.0,15.0
4634,730.0,13.0
4635,979.0,11.0
4636,1508.0,16.0
4637,1556.0,25.0
4638,1101.0,28.0
4639,762.0,22.0
4640,999.0,13.0
4641,1475.0,8.0
4642,1545.0,8.0
4643,1128.0,8.0
4644,768.0,2.0
4645,1011.0,-4.0
4646,1518.0,-5.0
4647,1618.0,0.0
4648,1209.0,6.0
4649,837.0,6.0
4650,1019.0,5.0
4651,1518.0,9.0
4652,1640.0,16.0
4653,1248.0,20.0
4654,870.0,16.0
4655,1023.0,9.0
4656,1483.0,8.0
4657,1608.0,15.0
4658,1221.0,24.0
4659,823.0,28.0
4660,972.0,31.0
4661,1457.0,36.0
4662,1621.0,45.0
4663,1229.0,50.0
4664,825.0,46.0
4665,928.0,37.0
4666,1424.0,31.0
4667,1655.0,29.0
4668,1287.0,25.0
4669,869.0,13.0
4670,963.0,-1.0
4671,1432.0,-13.0
4672,1632.0,-17.0
4673,1265.0,-19.0
4674,899.0,-25.0
4675,978.0,-33.0
4676,1472.0,-35.0
4677,1736.0,-30.0
4678,1431.0,-24.0
4679,1013.0,-21.0
4680,1120.0,-22.0
4681,1743.0,-18.0
4682,2134.0,-9.0
4683,1798.0,-2.0
4684,1270.0,-3.0
4685,1228.0,-9.0
4686,1633.0,-11.0
4687,1857.0,-5.0
4688,1524.0,5.0
4689,1029.0,15.0
4690,980.0,28.0
4691,1438.0,51.0
4692,1762.0,89.0
4693,1499.0,135.0
4694,1021.0,176.0
4695,976.0,205.0
4696,1405.0,221.0
4697,1732.0,218.0
4698,1447.0,190.0
4699,973.0,131.0
4700,893.0,52.0
4701,1337.0,-26.0
4702,1679.0,-89.0
4703,1494.0,-132.0
4704,1046.0,-159.0
4705,993.0,-172.0
4706,1433.0,-169.0
4707,1800.0,-155.0
4708,1562.0,-138.0
4709,1015.0,-130.0
4710,989.0,-133.0
4711,1447.0,-138.0
4712,1799.0,-137.0
4713,1563.0,-130.0
4714,1035.0,-121.0
4715,943.0,-109.0
4716,1406.0,-88.0
4717,1812.0,-57.0
4718,1612.0,-23.0
4719,1114.0,0.0
4720,984.0,10.0
4721,1416.0,14.0
4722,1793.0,4.0
4723,1284.0,10.0
4724,1080.0,11.0
4725,1421.0,14.0
4726,1881.0,25.0
4727,1816.0,39.0
4728,1312.0,47.0
4729,1110.0,45.0
4730,1486.0,40.0
4731,1941.0,39.0
4732,1839.0,41.0
4733,1324.0,39.0
4734,1097.0,31.0
4735,1446.0,22.0
4736,1893.0,19.0
4737,1838.0,18.0
4738,1332.0,12.0
4739,1017.0,1.0
4740,1314.0,-7.0
4741,1789.0,-6.0
4742,1808.0,1.0
4743,1304.0,7.0
4744,1000.0,6.0
4745,1282.0,1.0
4746,1755.0,-1.0
4747,1764.0,-2.0
4748,1283.0,-9.0
4749,1167.0,-41.0
4750,1587.0,-53.0
4751,1704.0,-59.0
4752,1263.0,-66.0
4753,951.0,-78.0
4754,1186.0,-87.0
4755,1653.0,-88.0
4756,1693.0,-80.0
4757,1283.0,-73.0
4758,952.0,-74.0
4759,1127.0,-80.0
4760,1588.0,-85.0
4761,1689.0,-87.0
4762,1280.0,-90.0
4763,911.0,-97.0
4764,1109.0,-100.0
4765,1590.0,-92.0
4766,1716.0,-72.0
4767,1291.0,-52.0
4768,887.0,-38.0
4769,1038.0,-30.0
4770,1540.0,-23.0
4771,1687.0,-15.0
4772,1312.0,-13.0
4773,908.0,-17.0
4774,1039.0,-23.0
4775,1520.0,-22.0
4776,1660.0,-13.0
4777,1254.0,-3.0
4778,846.0,0.0
4779,1012.0,-1.0
4780,1541.0,0.0
4781,1712.0,2.0
4782,1288.0,5.0
4783,842.0,2.0
4784,910.0,-2.0
4785,1432.0,0.0
4786,1656.0,7.0
4787,1329.0,13.0
4788,899.0,12.0
4789,966.0,5.0
4790,1425.0,3.0
4791,1647.0,9.0
4792,1285.0,17.0
4793,881.0,20.0
4794,932.0,18.0
4795,1408.0,18.0
4796,1647.0,20.0
4797,1322.0,22.0
4798,855.0,18.0
4799,881.0,13.0
4800,1345.0,16.0
4801,1608.0,27.0
4802,1330.0,39.0
4803,872.0,44.0
4804,862.0,41.0
4805,1319.0,38.0
4806,1610.0,39.0
4807,1299.0,42.0
4808,834.0,40.0
4809,830.0,33.0
4810,1276.0,30.0
4811,1596.0,32.0
4812,1317.0,36.0
4813,845.0,33.0
4814,812.0,27.0
4815,1274.0,24.0
4816,1621.0,28.0
4817,1374.0,35.0
4818,843.0,35.0
4819,819.0,29.0
4820,1313.0,25.0
4821,1629.0,26.0
4822,1387.0,30.0
4823,916.0,29.0
4824,832.0,26.0
4825,1236.0,26.0
4826,1632.0,35.0
4827,1448.0,46.0
4828,963.0,53.0
4829,833.0,54.0
4830,1234.0,56.0
4831,1632.0,64.0
4832,1415.0,74.0
4833,927.0,78.0
4834,801.0,75.0
4835,1186.0,73.0
4836,1544.0,75.0
4837,1354.0,80.0
4838,885.0,80.0
4839,709.0,75.0
4840,1106.0,71.0
4841,1528.0,72.0
4842,1420.0,76.0
4843,920.0,73.0
4844,713.0,62.0
4845,1096.0,49.0
4846,1519.0,39.0
4847,1400.0,32.0
4848,901.0,20.0
4849,677.0,2.0
4850,1021.0,-13.0
4851,1466.0,-19.0
4852,1447.0,-18.0
4853,1000.0,-15.0
4854,765.0,-14.0
4855,1113.0,-10.0
4856,1619.0,0.0
4857,1598.0,12.0
4858,1218.0,18.0
4859,1048.0,13.0
4860,1490.0,5.0
4861,1984.0,1.0
4862,1892.0,2.0
4863,1289.0,4.0
4864,930.0,5.0
4865,1200.0,12.0
4866,1627.0,31.0
4867,1554.0,59.0
4868,1047.0,89.0
4869,786.0,119.0
4870,1125.0,155.0
4871,1624.0,202.0
4872,1674.0,255.0
4873,1200.0,296.0
4874,837.0,313.0
4875,1064.0,302.0
4876,1509.0,267.0
4877,1533.0,209.0
4878,1087.0,130.0
4879,1037.0,-37.0
4880,1512.0,-87.0
4881,1583.0,-105.0
4882,1126.0,-100.0
4883,779.0,-85.0
4884,1010.0,-68.0
4885,1510.0,-52.0
4886,1589.0,-43.0
4887,1183.0,-50.0
4888,847.0,-72.0
4889,1015.0,-99.0
4890,1486.0,-115.0
4891,847.0,-98.0
4892,1036.0,-87.0
4893,1532.0,-73.0
4894,1680.0,-56.0
4895,1255.0,-45.0
4896,843.0,-43.0
4897,988.0,-45.0
4898,1477.0,-42.0
4899,1682.0,-33.0
4900,1041.0,-23.0
4901,1492.0,-20.0
4902,1707.0,-9.0
4903,882.0,5.0
4904,923.0,1.0
4905,1406.0,-1.0
4906,1656.0,-1.0
4907,1353.0,-1.0
4908,891.0,-6.0
4909,911.0,-13.0
4910,1333.0,-15.0
4911,1600.0,-12.0
4912,1298.0,-9.0
4913,858.0,-15.0
4914,859.0,-30.0
4915,1301.0,-45.0
4916,1568.0,-55.0
4917,1280.0,-64.0
4918,758.0,-75.0
4919,685.0,-87.0
4920,1195.0,-94.0
4921,1566.0,-91.0
4922,1285.0,-87.0
4923,786.0,-90.0
4924,710.0,-98.0
4925,1122.0,-104.0
4926,1420.0,-104.0
4927,1230.0,-102.0
4928,773.0,-106.0
4929,713.0,-117.0
4930,1144.0,-127.0
4931,1480.0,-130.0
4932,1248.0,-129.0
4933,789.0,-129.0
4934,702.0,-130.0
4935,1119.0,-126.0
4936,1458.0,-116.0
4937,675.0,-105.0
4938,1079.0,-106.0
4939,1470.0,-97.0
4940,1295.0,-81.0
4941,778.0,-66.0
4942,652.0,-56.0
4943,1043.0,-46.0
4944,1450.0,-32.0
4945,1314.0,-19.0
4946,802.0,-13.0
4947,649.0,-14.0
4948,1052.0,-14.0
4949,1448.0,-8.0
4950,1295.0,1.0
4951,796.0,5.0
4952,598.0,2.0
4953,954.0,0.0
4954,1414.0,1.0
4955,1321.0,7.0
4956,813.0,9.0
4957,566.0,8.0
4958,908.0,8.0
4959,1328.0,16.0
4960,1276.0,27.0
4961,816.0,32.0
4962,583.0,28.0
4963,915.0,21.0
4964,1358.0,18.0
4965,1329.0,19.0
4966,871.0,18.0
4967,584.0,12.0
4968,897.0,7.0
4969,1354.0,8.0
4970,1360.0,13.0
4971,900.0,13.0
4972,587.0,8.0
4973,850.0,4.0
4974,1333.0,8.0
4975,1344.0,21.0
4976,870.0,33.0
4977,534.0,41.0
4978,828.0,46.0
4979,1348.0,55.0
4980,1403.0,66.0
4981,919.0,72.0
4982,554.0,70.0
4983,1270.0,64.0
4984,1338.0,67.0
4985,889.0,66.0
4986,546.0,57.0
4987,768.0,46.0
4988,1280.0,42.0
4989,1372.0,47.0
4990,966.0,53.0
4991,565.0,54.0
4992,746.0,53.0
4993,1239.0,55.0
4994,1369.0,59.0
4995,963.0,56.0
4996,580.0,45.0
4997,741.0,30.0
4998,1229.0,23.0
4999,1412.0,27.0
5000,1028.0,35.0
5001,608.0,39.0
5002,735.0,42.0
5003,1089.0,65.0
5004,670.0,58.0
5005,738.0,46.0
5006,1187.0,38.0
5007,1477.0,38.0
5008,1198.0,42.0
5009,730.0,44.0
5010,750.0,44.0
5011,1196.0,47.0
5012,1435.0,56.0
5013,1098.0,63.0
5014,645.0,62.0
5015,643.0,54.0
5016,1108.0,48.0
5017,1396.0,49.0
5018,1123.0,54.0
5019,613.0,55.0
5020,594.0,54.0
5021,1113.0,55.0
5022,1434.0,60.0
5023,1142.0,60.0
5024,653.0,48.0
5025,614.0,26.0
5026,1063.0,1.0
5027,1406.0,-15.0
5028,1162.0,-29.0
5029,667.0,-42.0
5030,576.0,-55.0
5031,1028.0,-59.0
5032,1380.0,-53.0
5033,1181.0,-41.0
5034,768.0,-35.0
5035,709.0,-34.0
5036,1248.0,-33.0
5037,1724.0,-27.0
5038,1612.0,-20.0
5039,1177.0,-21.0
5040,1024.0,-29.0
5041,1359.0,-36.0
5042,1665.0,-37.0
5043,1429.0,-34.0
5044,896.0,-32.0
5045,703.0,-31.0
5046,1061.0,-18.0
5047,1463.0,14.0
5048,1329.0,64.0
5049,871.0,122.0
5050,709.0,178.0
5051,1078.0,228.0
5052,1448.0,266.0
5053,1286.0,279.0
5054,814.0,255.0
5055,629.0,196.0
5056,1029.0,116.0
5057,1461.0,36.0
5058,1345.0,-34.0
5059,897.0,-90.0
5060,674.0,-128.0
5061,1010.0,-145.0
5062,1445.0,-141.0
5063,1375.0,-126.0
5064,926.0,-115.0
5065,660.0,-116.0
5066,1029.0,-123.0
5067,1500.0,-126.0
5068,1461.0,-123.0
5069,977.0,-119.0
5070,717.0,-113.0
5071,1012.0,-103.0
5072,1466.0,-85.0
5073,1450.0,-64.0
5074,980.0,-50.0
5075,724.0,-47.0
5076,1518.0,-34.0
5077,1066.0,-24.0
5078,776.0,-20.0
5079,1056.0,-17.0
5080,1503.0,-12.0
5081,1570.0,-5.0
5082,1137.0,-5.0
5083,828.0,-14.0
5084,1067.0,-25.0
5085,1506.0,-28.0
5086,1595.0,-23.0
5087,1184.0,-15.0
5088,848.0,-11.0
5089,1031.0,-7.0
5090,1535.0,0.0
5091,1626.0,12.0
5092,1175.0,19.0
5093,833.0,19.0
5094,1047.0,15.0
5095,1538.0,14.0
5096,1651.0,19.0
5097,1223.0,21.0
5098,849.0,17.0
5099,1014.0,9.0
5100,1491.0,5.0
5101,1639.0,7.0
5102,1235.0,6.0
5103,857.0,0.0
5104,991.0,-10.0
5105,1465.0,-14.0
5106,1624.0,-12.0
5107,1215.0,-10.0
5108,806.0,-13.0
5109,934.0,-19.0
5110,1413.0,-23.0
5111,1526.0,-44.0
5112,1170.0,-43.0
5113,743.0,-49.0
5114,846.0,-60.0
5115,1360.0,-68.0
5116,1574.0,-72.0
5117,1211.0,-75.0
5118,774.0,-83.0
5119,826.0,-94.0
5120,1297.0,-100.0
5121,1527.0,-99.0
5122,1194.0,-97.0
5123,760.0,-100.0
5124,809.0,-106.0
5125,1288.0,-105.0
5126,1572.0,-96.0
5127,1277.0,-82.0
5128,822.0,-73.0
5129,845.0,-67.0
5130,1282.0,-60.0
5131,1580.0,-51.0
5132,1287.0,-44.0
5133,803.0,-47.0
5134,793.0,-55.0
5135,1282.0,-58.0
5136,1603.0,-52.0
5137,1351.0,-40.0
5138,861.0,-29.0
5139,797.0,-20.0
5140,1254.0,-9.0
5141,1602.0,5.0
5142,1343.0,18.0
5143,840.0,21.0
5144,754.0,14.0
5145,1239.0,7.0
5146,1618.0,7.0
5147,1412.0,12.0
5148,919.0,15.0
5149,828.0,15.0
5150,1251.0,18.0
5151,1635.0,27.0
5152,1448.0,35.0
5153,947.0,34.0
5154,824.0,24.0
5155,1240.0,14.0
5156,1590.0,12.0
5157,1412.0,16.0
5158,943.0,20.0
5159,815.0,23.0
5160,1217.0,29.0
5161,1608.0,43.0
5162,1440.0,59.0
5163,937.0,67.0
5164,754.0,65.0
5165,1130.0,59.0
5166,1615.0,57.0
5167,1541.0,55.0
5168,1031.0,48.0
5169,795.0,36.0
5170,1168.0,25.0
5171,1592.0,23.0
5172,1513.0,27.0
5173,1035.0,27.0
5174,790.0,20.0
5175,1155.0,12.0
5176,1619.0,10.0
5177,1531.0,14.0
5178,1030.0,16.0
5179,760.0,17.0
5180,1065.0,20.0
5181,1492.0,31.0
5182,1528.0,44.0
5183,1068.0,50.0
5184,833.0,45.0
5185,1114.0,36.0
5186,1552.0,33.0
5187,1507.0,34.0
5188,1025.0,34.0
5189,745.0,28.0
5190,1070.0,18.0
5191,1537.0,11.0
5192,1524.0,7.0
5193,1040.0,1.0
5194,768.0,-7.0
5195,1024.0,-12.0
5196,1533.0,-6.0
5197,1563.0,7.0
5198,1129.0,17.0
5199,792.0,17.0
5200,1040.0,10.0
5201,1547.0,4.0
5202,1612.0,1.0
5203,1185.0,-2.0
5204,860.0,-10.0
5205,1017.0,-15.0
5206,1495.0,-12.0
5207,1617.0,-1.0
5208,1200.0,8.0
5209,810.0,11.0
5210,962.0,12.0
5211,1416.0,19.0
5212,1528.0,31.0
5213,1115.0,41.0
5214,720.0,43.0
5215,895.0,42.0
5216,1479.0,48.0
5217,1106.0,49.0
5218,723.0,41.0
5219,876.0,28.0
5220,1372.0,16.0
5221,1521.0,8.0
5222,1122.0,-2.0
5223,701.0,-19.0
5224,831.0,-40.0
5225,1284.0,-55.0
5226,1455.0,-62.0
5227,1088.0,-65.0
5228,690.0,-70.0
5229,821.0,-73.0
5230,1311.0,-67.0
5231,1544.0,-53.0
5232,1197.0,-38.0
5233,807.0,-30.0
5234,1000.0,-28.0
5235,1552.0,-27.0
5236,1862.0,-24.0
5237,1593.0,-25.0
5238,1159.0,-33.0
5239,1173.0,-43.0
5240,1572.0,-45.0
5241,1753.0,-35.0
5242,1356.0,-19.0
5243,825.0,-2.0
5244,841.0,16.0
5245,1291.0,46.0
5246,1535.0,89.0
5247,1235.0,141.0
5248,764.0,190.0
5249,756.0,233.0
5250,1184.0,268.0
5251,1253.0,283.0
5252,758.0,242.0
5253,673.0,172.0
5254,1114.0,90.0
5255,1496.0,12.0
5256,1261.0,-54.0
5257,743.0,-108.0
5258,655.0,-147.0
5259,1141.0,-164.0
5260,1512.0,-161.0
5261,1321.0,-147.0
5262,815.0,-137.0
5263,711.0,-132.0
5264,1138.0,-128.0
5265,1513.0,-120.0
5266,1347.0,-109.0
5267,847.0,-102.0
5268,757.0,-98.0
5269,1160.0,-90.0
5270,1514.0,-73.0
5271,1391.0,-49.0
5272,932.0,-29.0
5273,1179.0,-3.0
5274,1566.0,11.0
5275,1412.0,26.0
5276,932.0,33.0
5277,764.0,32.0
5278,1151.0,30.0
5279,1600.0,34.0
5280,1476.0,43.0
5281,975.0,48.0
5282,767.0,49.0
5283,1153.0,50.0
5284,1575.0,56.0
5285,1464.0,64.0
5286,960.0,66.0
5287,705.0,59.0
5288,1095.0,51.0
5289,1555.0,48.0
5290,1483.0,50.0
5291,956.0,50.0
5292,709.0,45.0
5293,1093.0,41.0
5294,1564.0,43.0
5295,1452.0,47.0
5296,941.0,44.0
5297,669.0,31.0
5298,964.0,15.0
5299,1509.0,6.0
5300,1523.0,2.0
5301,1033.0,-1.0
5302,709.0,-9.0
5303,983.0,-14.0
5304,1431.0,-11.0
5305,1406.0,-2.0
5306,994.0,0.0
5307,696.0,-6.0
5308,931.0,-18.0
5309,1381.0,-25.0
5310,1385.0,-26.0
5311,920.0,-25.0
5312,549.0,-25.0
5313,815.0,-24.0
5314,1309.0,-16.0
5315,1401.0,-5.0
5316,963.0,-2.0
5317,615.0,-10.0
5318,815.0,-24.0
5319,1287.0,-34.0
5320,1390.0,-38.0
5321,995.0,-43.0
5322,673.0,-54.0
5323,886.0,-67.0
5324,1346.0,-76.0
5325,1435.0,-78.0
5326,1008.0,-77.0
5327,626.0,-77.0
5328,828.0,-74.0
5329,1360.0,-62.0
5330,1492.0,-43.0
5331,1069.0,-26.0
5332,671.0,-16.0
5333,832.0,-9.0
5334,1343.0,1.0
5335,1519.0,17.0
5336,1149.0,31.0
5337,735.0,37.0
5338,838.0,35.0
5339,1331.0,34.0
5340,1503.0,38.0
5341,1124.0,40.0
5342,686.0,38.0
5343,800.0,35.0
5344,1324.0,37.0
5345,1531.0,46.0
5346,1151.0,55.0
5347,720.0,57.0
5348,807.0,54.0
5349,1270.0,54.0
5350,1488.0,57.0
5351,1174.0,58.0
5352,750.0,49.0
5353,811.0,34.0
5354,1283.0,22.0
5355,738.0,16.0
5356,776.0,12.0
5357,1238.0,11.0
5358,1528.0,15.0
5359,1245.0,19.0
5360,763.0,15.0
5361,787.0,7.0
5362,1208.0,3.0
5363,1490.0,9.0
5364,1248.0,18.0
5365,805.0,22.0
5366,789.0,20.0
5367,1233.0,17.0
5368,764.0,13.0
5369,723.0,4.0
5370,1184.0,-2.0
5371,1511.0,0.0
5372,1263.0,2.0
5373,786.0,2.0
5374,686.0,-2.0
5375,1128.0,-4.0
5376,1503.0,0.0
5377,1326.0,7.0
5378,864.0,7.0
5379,747.0,0.0
5380,1139.0,-8.0
5381,1534.0,-11.0
5382,1369.0,-13.0
5383,898.0,-18.0
5384,687.0,-27.0
5385,1113.0,-32.0
5386,1584.0,-30.0
5387,1447.0,-22.0
5388,957.0,-17.0
5389,804.0,-15.0
5390,1576.0,0.0
5391,1440.0,14.0
5392,975.0,21.0
5393,816.0,19.0
5394,1170.0,14.0
5395,1585.0,13.0
5396,1471.0,17.0
5397,973.0,20.0
5398,725.0,21.0
5399,1069.0,24.0
5400,1526.0,35.0
5401,1453.0,47.0
5402,944.0,52.0
5403,702.0,46.0
5404,1027.0,36.0
5405,1454.0,30.0
5406,1373.0,28.0
5407,952.0,22.0
5408,756.0,10.0
5409,1064.0,-3.0
5410,1530.0,-13.0
5411,1483.0,-20.0
5412,989.0,-31.0
5413,719.0,-46.0
5414,981.0,-61.0
5415,1441.0,-67.0
5416,1481.0,-68.0
5417,1034.0,-69.0
5418,741.0,-73.0
5419,1027.0,-74.0
5420,1550.0,-64.0
5421,1639.0,-45.0
5422,1281.0,-26.0
5423,1059.0,-16.0
5424,1409.0,-12.0
5425,1910.0,-10.0
5426,1890.0,-9.0
5427,1339.0,-14.0
5428,923.0,-25.0
5429,1099.0,-34.0
5430,1535.0,-30.0
5431,1564.0,-11.0
5432,1091.0,14.0
5433,779.0,46.0
5434,1024.0,85.0
5435,1526.0,135.0
5436,1625.0,190.0
5437,1159.0,231.0
5438,729.0,245.0
5439,882.0,226.0
5440,1407.0,182.0
5441,1550.0,118.0
5442,1125.0,38.0
5443,746.0,-47.0
5444,936.0,-120.0
5445,1457.0,-164.0
5446,1632.0,-175.0
5447,1216.0,-166.0
5448,786.0,-153.0
5449,895.0,-142.0
5450,1413.0,-133.0
5451,1587.0,-127.0
5452,1182.0,-129.0
5453,767.0,-138.0
5454,930.0,-144.0
5455,1438.0,-135.0
5456,1645.0,-109.0
5457,1288.0,-76.0
5458,838.0,-47.0
5459,927.0,-26.0
5460,1641.0,0.0
5461,1287.0,2.0
5462,844.0,-7.0
5463,949.0,-22.0
5464,1432.0,-28.0
5465,1686.0,-22.0
5466,1350.0,-9.0
5467,879.0,1.0
5468,1664.0,23.0
5469,1402.0,30.0
5470,951.0,30.0
5471,908.0,26.0
5472,1319.0,25.0
5473,1651.0,31.0
5474,1414.0,37.0
5475,925.0,37.0
5476,864.0,30.0
5477,1328.0,22.0
5478,1654.0,19.0
5479,1399.0,16.0
5480,881.0,6.0
5481,793.0,-9.0
5482,1224.0,-23.0
5483,1563.0,-30.0
5484,1361.0,-33.0
5485,849.0,-37.0
5486,742.0,-44.0
5487,1153.0,-46.0
5488,1511.0,-40.0
5489,1376.0,-32.0
5490,883.0,-30.0
5491,751.0,-36.0
5492,1150.0,-43.0
5493,1520.0,-47.0
5494,1415.0,-49.0
5495,927.0,-56.0
5496,756.0,-67.0
5497,1124.0,-75.0
5498,1537.0,-73.0
5499,1422.0,-65.0
5500,954.0,-58.0
5501,760.0,-54.0
5502,1124.0,-48.0
5503,1589.0,-35.0
5504,1484.0,-18.0
5505,975.0,-5.0
5506,757.0,0.0
5507,1121.0,4.0
5508,1550.0,12.0
5509,1480.0,22.0
5510,974.0,28.0
5511,733.0,27.0
5512,1091.0,25.0
5513,1579.0,31.0
5514,1536.0,41.0
5515,1025.0,48.0
5516,745.0,48.0
5517,1065.0,46.0
5518,1515.0,48.0
5519,1484.0,50.0
5520,989.0,47.0
5521,758.0,36.0
5522,1087.0,24.0
5523,1544.0,21.0
5524,1490.0,26.0
5525,991.0,31.0
5526,700.0,31.0
5527,995.0,30.0
5528,1490.0,32.0
5529,1506.0,35.0
5530,1023.0,31.0
5531,722.0,20.0
5532,1006.0,8.0
5533,1460.0,6.0
5534,1498.0,12.0
5535,1045.0,17.0
5536,719.0,16.0
5537,1023.0,11.0
5538,1544.0,8.0
5539,1557.0,7.0
5540,1072.0,5.0
5541,697.0,-1.0
5542,919.0,-6.0
5543,1395.0,-3.0
5544,1492.0,6.0
5545,1094.0,14.0
5546,753.0,15.0
5547,971.0,14.0
5548,1460.0,18.0
5549,1551.0,30.0
5550,1117.0,40.0
5551,740.0,42.0
5552,932.0,37.0
5553,1476.0,31.0
5554,1637.0,25.0
5555,1241.0,15.0
5556,812.0,1.0
5557,948.0,-9.0
5558,1457.0,-7.0
5559,1657.0,6.0
5560,1270.0,23.0
5561,857.0,32.0
5562,1000.0,34.0
5563,1485.0,36.0
5564,1602.0,42.0
5565,1207.0,47.0
5566,753.0,49.0
5567,855.0,49.0
5568,1385.0,54.0
5569,1616.0,64.0
5570,1243.0,73.0
5571,775.0,72.0
5572,874.0,66.0
5573,1359.0,61.0
5574,1576.0,62.0
5575,1201.0,58.0
5576,853.0,21.0
5577,1311.0,0.0
5578,1543.0,-16.0
5579,1193.0,-27.0
5580,745.0,-37.0
5581,760.0,-44.0
5582,1276.0,-42.0
5583,1563.0,-32.0
5584,1270.0,-21.0
5585,814.0,-20.0
5586,879.0,-27.0
5587,1436.0,-33.0
5588,1801.0,-33.0
5589,1587.0,-32.0
5590,1159.0,-36.0
5591,1150.0,-45.0
5592,1525.0,-49.0
5593,1770.0,-46.0
5594,1451.0,-39.0
5595,899.0,-33.0
5596,752.0,-27.0
5597,1181.0,-11.0
5598,1576.0,19.0
5599,1370.0,60.0
5600,898.0,103.0
5601,849.0,143.0
5602,1267.0,179.0
5603,1598.0,208.0
5604,1364.0,216.0
5605,882.0,192.0
5606,780.0,136.0
5607,1195.0,63.0
5608,1541.0,-10.0
5609,1360.0,-74.0
5610,856.0,-123.0
5611,749.0,-152.0
5612,1179.0,-155.0
5613,1568.0,-133.0
5614,1383.0,-100.0
5615,921.0,-74.0
5616,774.0,-63.0
5617,1193.0,-61.0
5618,1599.0,-63.0
5619,1478.0,-66.0
5620,981.0,-73.0
5621,810.0,-80.0
5622,1234.0,-80.0
5623,1637.0,-68.0
5624,1518.0,-49.0
5625,1017.0,-33.0
5626,815.0,-24.0
5627,1195.0,-15.0
5628,1616.0,-3.0
5629,1533.0,10.0
5630,1092.0,19.0
5631,893.0,21.0
5632,1238.0,24.0
5633,1675.0,32.0
5634,1556.0,43.0
5635,1080.0,48.0
5636,870.0,44.0
5637,1220.0,37.0
5638,1685.0,33.0
5639,1662.0,32.0
5640,1202.0,29.0
5641,952.0,22.0
5642,1235.0,19.0
5643,1672.0,24.0
5644,1663.0,34.0
5645,1226.0,39.0
5646,939.0,34.0
5647,1238.0,25.0
5648,1647.0,19.0
5649,1699.0,20.0
5650,1237.0,21.0
5651,945.0,20.0
5652,1214.0,22.0
5653,1696.0,30.0
5654,1728.0,40.0
5655,1260.0,43.0
5656,895.0,35.0
5657,1126.0,21.0
5658,1678.0,8.0
5659,1200.0,3.0
5660,820.0,-4.0
5661,1054.0,-11.0
5662,1578.0,-11.0
5663,1641.0,-5.0
5664,1206.0,-2.0
5665,859.0,-7.0
5666,1063.0,-17.0
5667,1535.0,-25.0
5668,1594.0,-31.0
5669,1184.0,-41.0
5670,856.0,-58.0
5671,1045.0,-77.0
5672,1549.0,-87.0
5673,1673.0,-87.0
5674,1246.0,-84.0
5675,835.0,-83.0
5676,968.0,-82.0
5677,1477.0,-75.0
5678,1674.0,-63.0
5679,1299.0,-55.0
5680,877.0,-54.0
5681,988.0,-58.0
5682,1478.0,-55.0
5683,1671.0,-44.0
5684,1305.0,-32.0
5685,902.0,-25.0
5686,997.0,-22.0
5687,1466.0,-19.0
5688,1653.0,-13.0
5689,1266.0,-10.0
5690,863.0,-13.0
5691,943.0,-18.0
5692,1425.0,-17.0
5693,1630.0,-8.0
5694,1292.0,2.0
5695,855.0,5.0
5696,950.0,3.0
5697,1431.0,3.0
5698,1674.0,6.0
5699,1303.0,7.0
5700,845.0,1.0
5701,900.0,-9.0
5702,1365.0,-18.0
5703,1635.0,-20.0
5704,1324.0,-20.0
5705,837.0,-23.0
5706,854.0,-27.0
5707,1322.0,-25.0
5708,1633.0,-14.0
5709,1352.0,-2.0
5710,871.0,1.0
5711,839.0,-1.0
5712,1257.0,-3.0
5713,1574.0,-2.0
5714,1340.0,-2.0
5715,875.0,-7.0
5716,850.0,-16.0
5717,1301.0,-21.0
5718,1570.0,-17.0
5719,1351.0,-9.0
5720,918.0,-5.0
5721,896.0,-7.0
5722,1323.0,-7.0
5723,1627.0,-3.0
5724,1373.0,0.0
5725,881.0,-1.0
5726,822.0,-8.0
5727,1236.0,-10.0
5728,1620.0,-4.0
5729,1422.0,6.0
5730,917.0,14.0
5731,849.0,18.0
5732,1295.0,24.0
5733,1671.0,36.0
5734,1479.0,47.0
5735,974.0,50.0
5736,849.0,43.0
5737,1259.0,34.0
5738,1659.0,28.0
5739,1502.0,25.0
5740,1023.0,20.0
5741,905.0,13.0
5742,1307.0,14.0
5743,1686.0,25.0
5744,1573.0,42.0
5745,1081.0,53.0
5746,919.0,56.0
5747,1270.0,54.0
5748,1665.0,55.0
5749,1561.0,56.0
5750,1061.0,53.0
5751,863.0,45.0
5752,1243.0,41.0
5753,1648.0,47.0
5754,1530.0,59.0
5755,1032.0,67.0
5756,797.0,68.0
5757,1167.0,65.0
5758,1625.0,63.0
5759,1558.0,61.0
5760,1104.0,52.0
5761,861.0,36.0
5762,1173.0,19.0
5763,1619.0,10.0
5764,1580.0,6.0
5765,1079.0,0.0
5766,796.0,-11.0
5767,1086.0,-24.0
5768,1560.0,-29.0
5769,1610.0,-29.0
5770,1196.0,-27.0
5771,950.0,-28.0
5772,1322.0,-26.0
5773,1851.0,-15.0
5774,1932.0,0.0
5775,1531.0,7.0
5776,1271.0,4.0
5777,1519.0,-6.0
5778,1897.0,-15.0
5779,1817.0,-19.0
5780,1284.0,-21.0
5781,938.0,-20.0
5782,1174.0,-9.0
5783,1656.0,20.0
5784,1712.0,67.0
5785,1243.0,120.0
5786,892.0,168.0
5787,1131.0,209.0
5788,1611.0,241.0
5789,1714.0,254.0
5790,1278.0,239.0
5791,876.0,190.0
5792,1048.0,119.0
5793,1524.0,43.0
5794,1656.0,-23.0
5795,1230.0,-78.0
5796,879.0,-120.0
5797,1059.0,-145.0
5798,1551.0,-148.0
5799,1647.0,-135.0
5800,1244.0,-120.0
5801,868.0,-115.0
5802,1024.0,-117.0
5803,1524.0,-118.0
5804,1686.0,-117.0
5805,1314.0,-116.0
5806,951.0,-119.0
5807,1088.0,-120.0
5808,1569.0,-112.0
5809,1757.0,-93.0
5810,1065.0,-58.0
5811,1544.0,-53.0
5812,1756.0,-44.0
5813,1360.0,-36.0
5814,928.0,-32.0
5815,1015.0,-28.0
5816,1504.0,-16.0
5817,1699.0,2.0
5818,1394.0,19.0
5819,964.0,27.0
5820,1057.0,25.0
5821,1525.0,22.0
5822,1764.0,22.0
5823,1426.0,19.0
5824,987.0,10.0
5825,1058.0,-2.0
5826,1536.0,-11.0
5827,1757.0,-12.0
5828,1428.0,-12.0
5829,898.0,-16.0
5830,971.0,-21.0
5831,1480.0,-20.0
5832,1740.0,-10.0
5833,1448.0,2.0
5834,977.0,9.0
5835,949.0,10.0
5836,1386.0,12.0
5837,1671.0,17.0
5838,1393.0,20.0
5839,944.0,13.0
5840,936.0,0.0
5841,1386.0,-13.0
5842,1705.0,-18.0
5843,1385.0,-19.0
5844,886.0,-23.0
5845,878.0,-28.0
5846,1312.0,-29.0
5847,1572.0,-25.0
5848,1327.0,-21.0
5849,868.0,-27.0
5850,803.0,-38.0
5851,1276.0,-46.0
5852,1648.0,-44.0
5853,1401.0,-37.0
5854,898.0,-33.0
5855,792.0,-34.0
5856,1618.0,-37.0
5857,1440.0,-40.0
5858,978.0,-50.0
5859,850.0,-64.0
5860,1247.0,-72.0
5861,1581.0,-67.0
5862,1420.0,-53.0
5863,964.0,-40.0
5864,835.0,-30.0
5865,1254.0,-21.0
5866,1638.0,-9.0
5867,1461.0,2.0
5868,1504.0,32.0
5869,1035.0,37.0
5870,859.0,33.0
5871,1211.0,29.0
5872,1615.0,30.0
5873,1534.0,36.0
5874,1062.0,39.0
5875,827.0,37.0
5876,1174.0,34.0
5877,1655.0,35.0
5878,1604.0,40.0
5879,1092.0,41.0
5880,826.0,38.0
5881,1172.0,37.0
5882,1604.0,43.0
5883,1489.0,53.0
5884,987.0,58.0
5885,777.0,55.0
5886,1142.0,48.0
5887,1602.0,47.0
5888,1547.0,51.0
5889,1088.0,54.0
5890,830.0,51.0
5891,1103.0,48.0
5892,1550.0,48.0
5893,1560.0,48.0
5894,779.0,21.0
5895,1051.0,0.0
5896,1559.0,-11.0
5897,1581.0,-11.0
5898,1105.0,-6.0
5899,837.0,-2.0
5900,1087.0,4.0
5901,1545.0,15.0
5902,1573.0,27.0
5903,1139.0,31.0
5904,825.0,23.0
5905,1076.0,11.0
5906,1589.0,4.0
5907,1644.0,5.0
5908,1190.0,7.0
5909,889.0,7.0
5910,1130.0,8.0
5911,1622.0,15.0
5912,1694.0,26.0
5913,1245.0,33.0
5914,869.0,31.0
5915,1038.0,24.0
5916,1524.0,23.0
5917,1684.0,28.0
5918,1255.0,34.0
5919,823.0,37.0
5920,1012.0,40.0
5921,1480.0,49.0
5922,1610.0,62.0
5923,1216.0,72.0
5924,818.0,70.0
5925,964.0,60.0
5926,1402.0,49.0
5927,1535.0,41.0
5928,1143.0,31.0
5929,785.0,15.0
5930,927.0,-1.0
5931,1435.0,-11.0
5932,1600.0,-13.0
5933,1199.0,-15.0
5934,783.0,-22.0
5935,850.0,-34.0
5936,1293.0,-43.0
5937,1545.0,-47.0
5938,1225.0,-52.0
5939,809.0,-62.0
5940,878.0,-73.0
5941,1457.0,-75.0
5942,1820.0,-66.0
5943,1592.0,-53.0
5944,1224.0,-43.0
5945,1304.0,-40.0
5946,1746.0,-37.0
5947,1883.0,-34.0
5948,1485.0,-35.0
5949,969.0,-44.0
5950,949.0,-53.0
5951,1373.0,-49.0
5952,1629.0,-24.0
5953,1287.0,17.0
5954,814.0,69.0
5955,845.0,126.0
5956,1317.0,187.0
5957,1628.0,241.0
5958,1296.0,272.0
5959,792.0,266.0
5960,764.0,221.0
5961,1209.0,152.0
5962,1508.0,75.0
5963,1246.0,-2.0
5964,741.0,-128.0
5965,1194.0,-158.0
5966,1504.0,-161.0
5967,1256.0,-149.0
5968,817.0,-138.0
5969,762.0,-133.0
5970,1187.0,-132.0
5971,1512.0,-129.0
5972,1290.0,-128.0
5973,833.0,-132.0
5974,773.0,-137.0
5975,1566.0,-118.0
5976,1387.0,-96.0
5977,898.0,-76.0
5978,793.0,-62.0
5979,1219.0,-49.0
5980,1624.0,-33.0
5981,1464.0,-19.0
5982,980.0,-11.0
5983,837.0,-10.0
5984,1253.0,-7.0
5985,1661.0,3.0
5986,1484.0,18.0
5987,967.0,30.0
5988,816.0,36.0
5989,1225.0,41.0
5990,1662.0,50.0
5991,1567.0,61.0
5992,1069.0,66.0
5993,855.0,65.0
5994,1249.0,65.0
5995,1712.0,70.0
5996,1615.0,78.0
5997,1134.0,78.0
5998,904.0,68.0
5999,1267.0,55.0
6000,1704.0,49.0
6001,1639.0,48.0
6002,1154.0,46.0
6003,919.0,42.0
6004,1264.0,41.0
6005,1739.0,49.0
6006,1688.0,60.0
6007,1176.0,67.0
6008,921.0,65.0
6009,1248.0,60.0
6010,1688.0,59.0
6011,1650.0,61.0
6012,1173.0,58.0
6013,914.0,49.0
6014,1228.0,39.0
6015,1663.0,36.0
6016,1620.0,39.0
6017,1111.0,39.0
6018,840.0,33.0
6019,1120.0,25.0
6020,1589.0,20.0
6021,1597.0,17.0
6022,1119.0,10.0
6023,809.0,-3.0
6024,1067.0,-17.0
6025,1504.0,-23.0
6026,1581.0,-24.0
6027,1170.0,-28.0
6028,859.0,-39.0
6029,1079.0,-54.0
6030,1528.0,-64.0
6031,1591.0,-69.0
6032,1152.0,-74.0
6033,827.0,-83.0
6034,1046.0,-91.0
6035,1532.0,-92.0
6036,1624.0,-85.0
6037,1150.0,-77.0
6038,780.0,-75.0
6039,986.0,-72.0
6040,1514.0,-62.0
6041,1653.0,-47.0
6042,1200.0,-35.0
6043,812.0,-31.0
6044,980.0,-33.0
6045,1577.0,-27.0
6046,1174.0,-24.0
6047,788.0,-27.0
6048,995.0,-33.0
6049,1459.0,-34.0
6050,1609.0,-28.0
6051,1238.0,-22.0
6052,835.0,-22.0
6053,939.0,-24.0
6054,1415.0,-22.0
6055,1600.0,-16.0
6056,1244.0,-14.0
6057,811.0,-21.0
6058,904.0,-31.0
6059,1408.0,-35.0
6060,1624.0,-29.0
6061,1265.0,-19.0
6062,832.0,-13.0
6063,907.0,-9.0
6064,1363.0,-4.0
6065,1570.0,2.0
6066,1256.0,6.0
6067,831.0,1.0
6068,897.0,-9.0
6069,1367.0,-14.0
6070,1603.0,-11.0
6071,1304.0,-4.0
6072,848.0,-2.0
6073,919.0,-2.0
6074,1371.0,-1.0
6075,1633.0,3.0
6076,1321.0,7.0
6077,870.0,2.0
6078,900.0,-6.0
6079,1383.0,-10.0
6080,1667.0,-6.0
6081,1347.0,2.0
6082,886.0,7.0
6083,908.0,9.0
6084,1393.0,14.0
6085,1700.0,24.0
6086,1413.0,33.0
6087,937.0,34.0
6088,898.0,29.0
6089,1376.0,27.0
6090,1700.0,31.0
6091,1467.0,36.0
6092,990.0,37.0
6093,932.0,32.0
6094,1365.0,31.0
6095,1688.0,37.0
6096,1432.0,45.0
6097,895.0,47.0
6098,782.0,43.0
6099,1213.0,41.0
6100,1569.0,44.0
6101,1395.0,49.0
6102,928.0,48.0
6103,1551.0,42.0
6104,1419.0,45.0
6105,927.0,38.0
6106,829.0,19.0
6107,1212.0,-4.0
6108,1574.0,-25.0
6109,1394.0,-41.0
6110,920.0,-57.0
6111,788.0,-71.0
6112,1155.0,-76.0
6113,1565.0,-68.0
6114,1492.0,-53.0
6115,1037.0,-42.0
6116,1793.0,-22.0
6117,1748.0,-11.0
6118,1344.0,-5.0
6119,1203.0,-7.0
6120,1543.0,-12.0
6121,1906.0,-11.0
6122,1718.0,-5.0
6123,1086.0,0.0
6124,748.0,7.0
6125,1094.0,21.0
6126,1578.0,49.0
6127,1540.0,87.0
6128,1047.0,127.0
6129,804.0,164.0
6130,1137.0,197.0
6131,1566.0,229.0
6132,1494.0,247.0
6133,1019.0,237.0
6134,731.0,192.0
6135,1059.0,120.0
6136,1518.0,39.0
6137,1465.0,-39.0
6138,962.0,-108.0
6139,669.0,-159.0
6140,1019.0,-184.0
6141,1513.0,-178.0
6142,1529.0,-154.0
6143,1029.0,-130.0
6144,706.0,-119.0
6145,965.0,-118.0
6146,1463.0,-119.0
6147,1504.0,-119.0
6148,1037.0,-119.0
6149,715.0,-121.0
6150,1522.0,-80.0
6151,1056.0,-56.0
6152,751.0,-40.0
6153,967.0,-29.0
6154,1430.0,-18.0
6155,1525.0,-7.0
6156,1100.0,-2.0
6157,768.0,-7.0
6158,977.0,-12.0
6159,1412.0,-9.0
6160,1525.0,2.0
6161,1107.0,14.0
6162,761.0,20.0
6163,972.0,20.0
6164,1453.0,22.0
6165,1587.0,26.0
6166,1127.0,26.0
6167,772.0,20.0
6168,989.0,13.0
6169,1471.0,13.0
6170,1572.0,19.0
6171,1119.0,24.0
6172,711.0,23.0
6173,876.0,18.0
6174,1372.0,18.0
6175,1529.0,25.0
6176,1130.0,31.0
6177,756.0,33.0
6178,904.0,32.0
6179,1364.0,35.0
6180,1536.0,42.0
6181,1129.0,45.0
6182,711.0,38.0
6183,818.0,23.0
6184,1259.0,9.0
6185,1449.0,0.0
6186,1121.0,-7.0
6187,699.0,-16.0
6188,763.0,-23.0
6189,1230.0,-20.0
6190,1440.0,-8.0
6191,1068.0,3.0
6192,628.0,6.0
6193,690.0,0.0
6194,1149.0,-8.0
6195,1407.0,-14.0
6196,1078.0,-20.0
6197,627.0,-30.0
6198,668.0,-41.0
6199,1126.0,-43.0
6200,1448.0,-36.0
6201,1127.0,-28.0
6202,637.0,-26.0
6203,645.0,-32.0
6204,1119.0,-38.0
6205,1408.0,-38.0
6206,1141.0,-37.0
6207,699.0,-39.0
6208,685.0,-41.0
6209,1141.0,-37.0
6210,1476.0,-23.0
6211,1215.0,-6.0
6212,732.0,4.0
6213,674.0,9.0
6214,1146.0,13.0
6215,1488.0,21.0
6216,1213.0,29.0
6217,727.0,31.0
6218,649.0,29.0
6219,1098.0,32.0
6220,1432.0,44.0
6221,1243.0,60.0
6222,777.0,69.0
6223,679.0,72.0
6224,1087.0,72.0
6225,1419.0,76.0
6226,1211.0,78.0
6227,742.0,72.0
6228,640.0,59.0
6229,1104.0,47.0
6230,1467.0,41.0
6231,1262.0,39.0
6232,749.0,35.0
6233,626.0,28.0
6234,1040.0,24.0
6235,1455.0,27.0
6236,1333.0,31.0
6237,853.0,29.0
6238,695.0,19.0
6239,1066.0,10.0
6240,1420.0,10.0
6241,1281.0,15.0
6242,794.0,18.0
6243,623.0,16.0
6244,978.0,14.0
6245,1454.0,18.0
6246,1342.0,25.0
6247,854.0,29.0
6248,652.0,29.0
6249,1025.0,30.0
6250,1432.0,38.0
6251,1320.0,46.0
6252,848.0,45.0
6253,656.0,31.0
6254,1038.0,13.0
6255,1475.0,1.0
6256,1377.0,-2.0
6257,904.0,-4.0
6258,653.0,-5.0
6259,1004.0,-2.0
6260,1482.0,7.0
6261,1443.0,19.0
6262,991.0,23.0
6263,695.0,16.0
6264,978.0,8.0
6265,1439.0,6.0
6266,1007.0,16.0
6267,720.0,16.0
6268,1009.0,15.0
6269,1463.0,20.0
6270,1415.0,28.0
6271,901.0,32.0
6272,597.0,29.0
6273,889.0,24.0
6274,1393.0,23.0
6275,1448.0,26.0
6276,989.0,26.0
6277,638.0,19.0
6278,886.0,11.0
6279,1362.0,9.0
6280,1436.0,11.0
6281,993.0,7.0
6282,646.0,-7.0
6283,877.0,-28.0
6284,1343.0,-46.0
6285,1419.0,-57.0
6286,1007.0,-63.0
6287,648.0,-68.0
6288,862.0,-68.0
6289,1353.0,-59.0
6290,1446.0,-43.0
6291,1058.0,-32.0
6292,716.0,-31.0
6293,949.0,-36.0
6294,1477.0,-38.0
6295,1750.0,-35.0
6296,1457.0,-31.0
6297,1108.0,-33.0
6298,1229.0,-35.0
6299,1605.0,-33.0
6300,1642.0,-24.0
6301,1133.0,-17.0
6302,760.0,-14.0
6303,882.0,-12.0
6304,1336.0,-1.0
6305,1498.0,24.0
6306,1137.0,61.0
6307,731.0,104.0
6308,869.0,147.0
6309,1370.0,189.0
6310,1523.0,219.0
6311,1126.0,220.0
6312,698.0,182.0
6313,795.0,113.0
6314,1271.0,31.0
6315,1462.0,-44.0
6316,1074.0,-105.0
6317,711.0,-149.0
6318,854.0,-170.0
6319,1355.0,-166.0
6320,1559.0,-146.0
6321,1200.0,-123.0
6322,753.0,-112.0
6323,822.0,-113.0
6324,1319.0,-117.0
6325,1559.0,-119.0
6326,1250.0,-120.0
6327,807.0,-121.0
6328,864.0,-118.0
6329,1331.0,-101.0
6330,1600.0,-71.0
6331,1308.0,-36.0
6332,868.0,-9.0
6333,873.0,6.0
6334,1346.0,16.0
6335,1650.0,24.0
6336,1357.0,26.0
6337,899.0,20.0
6338,877.0,11.0
6339,1367.0,8.0
6340,1704.0,16.0
6341,1461.0,27.0
6342,979.0,33.0
6343,940.0,32.0
6344,987.0,54.0
6345,872.0,47.0
6346,1457.0,29.0
6347,960.0,16.0
6348,841.0,-1.0
6349,1271.0,-18.0
6350,1637.0,-26.0
6351,1456.0,-28.0
6352,914.0,-33.0
6353,772.0,-42.0
6354,1154.0,-51.0
6355,1539.0,-55.0
6356,1455.0,-57.0
6357,974.0,-64.0
6358,735.0,-75.0
6359,1378.0,-71.0
6360,919.0,-65.0
6361,729.0,-68.0
6362,1066.0,-73.0
6363,1500.0,-74.0
6364,1447.0,-73.0
6365,918.0,-73.0
6366,727.0,-78.0
6367,1076.0,-81.0
6368,1524.0,-76.0
6369,1480.0,-68.0
6370,991.0,-64.0
6371,744.0,-68.0
6372,1079.0,-71.0
6373,1543.0,-65.0
6374,1526.0,-52.0
6375,1046.0,-39.0
6376,782.0,-30.0
6377,1081.0,-22.0
6378,1518.0,-9.0
6379,1493.0,6.0
6380,1068.0,17.0
6381,780.0,21.0
6382,1061.0,23.0
6383,1535.0,30.0
6384,1534.0,42.0
6385,1055.0,51.0
6386,723.0,53.0
6387,1042.0,51.0
6388,1544.0,52.0
6389,1592.0,56.0
6390,1120.0,55.0
6391,789.0,46.0
6392,1027.0,35.0
6393,1485.0,30.0
6394,1537.0,32.0
6395,1113.0,33.0
6396,801.0,27.0
6397,1044.0,19.0
6398,1479.0,16.0
6399,1530.0,21.0
6400,1144.0,25.0
6401,840.0,25.0
6402,1057.0,25.0
6403,1515.0,28.0
6404,1581.0,34.0
6405,1141.0,35.0
6406,772.0,27.0
6407,939.0,16.0
6408,1443.0,11.0
6409,1598.0,14.0
6410,1183.0,18.0
6411,804.0,19.0
6412,967.0,19.0
6413,1475.0,24.0
6414,1604.0,34.0
6415,1176.0,41.0
6416,820.0,37.0
6417,993.0,26.0
6418,1468.0,15.0
6419,1626.0,9.0
6420,1235.0,4.0
6421,799.0,-2.0
6422,944.0,-7.0
6423,1428.0,-2.0
6424,1627.0,10.0
6425,1258.0,22.0
6426,850.0,25.0
6427,903.0,22.0
6428,1405.0,21.0
6429,1616.0,25.0
6430,1294.0,29.0
6431,894.0,27.0
6432,960.0,22.0
6433,1440.0,19.0
6434,1675.0,21.0
6435,1338.0,23.0
6436,892.0,19.0
6437,984.0,11.0
6438,1453.0,7.0
6439,1718.0,10.0
6440,1429.0,14.0
6441,1455.0,13.0
6442,1739.0,23.0
6443,1455.0,35.0
6444,970.0,40.0
6445,959.0,39.0
6446,1357.0,38.0
6447,1645.0,44.0
6448,1391.0,50.0
6449,915.0,52.0
6450,903.0,51.0
6451,1367.0,52.0
6452,1687.0,58.0
6453,1415.0,64.0
6454,1324.0,33.0
6455,1649.0,21.0
6456,1424.0,8.0
6457,992.0,-10.0
6458,961.0,-31.0
6459,1396.0,-47.0
6460,1778.0,-49.0
6461,1628.0,-44.0
6462,1146.0,-39.0
6463,1063.0,-39.0
6464,1496.0,-37.0
6465,1910.0,-32.0
6466,1792.0,-27.0
6467,1376.0,-27.0
6468,1339.0,-31.0
6469,1845.0,-28.0
6470,2240.0,-11.0
6471,1936.0,13.0
6472,1260.0,38.0
6473,1086.0,57.0
6474,1519.0,76.0
6475,1883.0,96.0
6476,1651.0,117.0
6477,1116.0,132.0
6478,987.0,145.0
6479,1398.0,166.0
6480,1815.0,199.0
6481,1652.0,232.0
6482,1127.0,248.0
6483,936.0,235.0
6484,1307.0,195.0
6485,1728.0,135.0
6486,1599.0,61.0
6487,1107.0,-22.0
6488,911.0,-104.0
6489,1301.0,-164.0
6490,1715.0,-195.0
6491,1599.0,-200.0
6492,1165.0,-195.0
6493,927.0,-191.0
6494,1288.0,-186.0
6495,1714.0,-179.0
6496,1651.0,-171.0
6497,1172.0,-169.0
6498,945.0,-172.0
6499,1273.0,-171.0
6500,1146.0,-114.0
6501,925.0,-98.0
6502,1232.0,-84.0
6503,1710.0,-67.0
6504,1702.0,-49.0
6505,1235.0,-38.0
6506,914.0,-35.0
6507,1207.0,-35.0
6508,1685.0,-32.0
6509,1686.0,-26.0
6510,1199.0,-25.0
6511,916.0,-32.0
6512,1185.0,-40.0
6513,1672.0,-40.0
6514,1685.0,-32.0
6515,1239.0,-23.0
6516,925.0,-18.0
6517,1165.0,-15.0
6518,1613.0,-8.0
6519,764.0,-13.0
6520,949.0,-25.0
6521,1461.0,-33.0
6522,1557.0,-33.0
6523,1142.0,-34.0
6524,733.0,-39.0
6525,872.0,-45.0
6526,1387.0,-45.0
6527,1518.0,-37.0
6528,1096.0,-31.0
6529,663.0,-32.0
6530,816.0,-37.0
6531,1338.0,-39.0
6532,1479.0,-37.0
6533,1063.0,-37.0
6534,691.0,-44.0
6535,819.0,-54.0
6536,1293.0,-57.0
6537,1471.0,-52.0
6538,1108.0,-47.0
6539,695.0,-47.0
6540,800.0,-52.0
6541,1306.0,-52.0
6542,1490.0,-46.0
6543,1118.0,-38.0
6544,657.0,-35.0
6545,758.0,-34.0
6546,1252.0,-26.0
6547,1456.0,-11.0
6548,1126.0,3.0
6549,749.0,12.0
6550,813.0,16.0
6551,1279.0,24.0
6552,1479.0,37.0
6553,1148.0,49.0
6554,709.0,53.0
6555,766.0,50.0
6556,1254.0,48.0
6557,1513.0,50.0
6558,1180.0,53.0
6559,686.0,53.0
6560,672.0,52.0
6561,1170.0,58.0
6562,1471.0,73.0
6563,1191.0,88.0
6564,727.0,93.0
6565,724.0,90.0
6566,1147.0,86.0
6567,1457.0,86.0
6568,1171.0,87.0
6569,727.0,81.0
6570,717.0,71.0
6571,1166.0,63.0
6572,1480.0,61.0
6573,1226.0,61.0
6574,755.0,56.0
6575,696.0,49.0
6576,1132.0,47.0
6577,1495.0,53.0
6578,1272.0,62.0
6579,763.0,65.0
6580,653.0,61.0
6581,1272.0,70.0
6582,789.0,73.0
6583,677.0,72.0
6584,1088.0,72.0
6585,1464.0,78.0
6586,1265.0,84.0
6587,797.0,84.0
6588,654.0,76.0
6589,1041.0,68.0
6590,1467.0,66.0
6591,1320.0,67.0
6592,803.0,64.0
6593,632.0,56.0
6594,1024.0,50.0
6595,1431.0,52.0
6596,1299.0,57.0
6597,831.0,57.0
6598,717.0,50.0
6599,1122.0,42.0
6600,1512.0,40.0
6601,1352.0,43.0
6602,839.0,42.0
6603,664.0,37.0
6604,1074.0,31.0
6605,1485.0,31.0
6606,903.0,33.0
6607,768.0,29.0
6608,1158.0,28.0
6609,1578.0,38.0
6610,1428.0,55.0
6611,928.0,66.0
6612,764.0,67.0
6613,1173.0,62.0
6614,1618.0,58.0
6615,1503.0,53.0
6616,975.0,45.0
6617,665.0,36.0
6618,1008.0,34.0
6619,1491.0,44.0
6620,1448.0,62.0
6621,1028.0,74.0
6622,807.0,76.0
6623,1132.0,74.0
6624,1581.0,73.0
6625,1551.0,75.0
6626,1104.0,70.0
6627,829.0,56.0
6628,1140.0,37.0
6629,1555.0,5.0
6630,1132.0,-10.0
6631,868.0,-27.0
6632,1142.0,-35.0
6633,1629.0,-26.0
6634,1649.0,-5.0
6635,1197.0,17.0
6636,913.0,30.0
6637,1202.0,35.0
6638,1728.0,38.0
6639,1823.0,38.0
6640,1494.0,33.0
6641,1271.0,20.0
6642,1584.0,9.0
6643,2020.0,5.0
6644,1946.0,10.0
6645,1384.0,15.0
6646,992.0,14.0
6647,1212.0,11.0
6648,1645.0,14.0
6649,1697.0,26.0
6650,1253.0,44.0
6651,907.0,66.0
6652,1582.0,141.0
6653,1658.0,186.0
6654,1214.0,212.0
6655,878.0,205.0
6656,1047.0,165.0
6657,1563.0,101.0
6658,1674.0,25.0
6659,1274.0,-53.0
6660,874.0,-128.0
6661,1051.0,-184.0
6662,1551.0,-213.0
6663,1693.0,-217.0
6664,1280.0,-213.0
6665,880.0,-211.0
6666,1025.0,-215.0
6667,1490.0,-216.0
6668,1619.0,-213.0
6669,1281.0,-209.0
6670,906.0,-208.0
6671,1042.0,-205.0
6672,1522.0,-193.0
6673,1691.0,-174.0
6674,1329.0,-155.0
6675,903.0,-145.0
6676,999.0,-142.0
6677,1536.0,-139.0
6678,1767.0,-134.0
6679,1404.0,-131.0
6680,950.0,-134.0
6681,1040.0,-139.0
6682,1499.0,-135.0
6683,1723.0,-122.0
6684,1391.0,-106.0
6685,1568.0,-86.0
6686,1788.0,-76.0
6687,1474.0,-65.0
6688,1049.0,-59.0
6689,1087.0,-57.0
6690,1568.0,-53.0
6691,1820.0,-43.0
6692,1495.0,-36.0
6693,1059.0,-36.0
6694,1056.0,-40.0
6695,1512.0,-38.0
6696,1780.0,-27.0
6697,1509.0,-12.0
6698,1024.0,-2.0
6699,996.0,1.0
6700,1476.0,5.0
6701,1806.0,10.0
6702,1533.0,13.0
6703,1038.0,8.0
6704,978.0,-2.0
6705,1387.0,-10.0
6706,1736.0,-12.0
6707,1480.0,-13.0
6708,987.0,-21.0
6709,920.0,-33.0
6710,1344.0,-43.0
6711,1667.0,-44.0
6712,1439.0,-40.0
6713,945.0,-40.0
6714,882.0,-44.0
6715,1300.0,-47.0
6716,1655.0,-46.0
6717,1431.0,-45.0
6718,969.0,-52.0
6719,864.0,-66.0
6720,1670.0,-83.0
6721,1480.0,-82.0
6722,980.0,-84.0
6723,820.0,-90.0
6724,1229.0,-93.0
6725,1655.0,-89.0
6726,1540.0,-80.0
6727,1050.0,-75.0
6728,875.0,-74.0
6729,1259.0,-71.0
6730,1670.0,-59.0
6731,1512.0,-45.0
6732,1048.0,-35.0
6733,901.0,-32.0
6734,1300.0,-31.0
6735,1707.0,-24.0
6736,1584.0,-14.0
6737,1079.0,-6.0
6738,884.0,-2.0
6739,1227.0,4.0
6740,1653.0,17.0
6741,1598.0,33.0
6742,1112.0,42.0
6743,887.0,42.0
6744,1233.0,40.0
6745,1660.0,45.0
6746,1591.0,55.0
6747,1132.0,63.0
6748,910.0,64.0
6749,1239.0,62.0
6750,1677.0,63.0
6751,1632.0,65.0
6752,1149.0,61.0
6753,863.0,52.0
6754,1167.0,43.0
6755,1651.0,44.0
6756,1674.0,51.0
6757,1184.0,56.0
6758,886.0,55.0
6759,1174.0,52.0
6760,1639.0,56.0
6761,1636.0,63.0
6762,1171.0,67.0
6763,872.0,63.0
6764,1168.0,55.0
6765,1651.0,51.0
6766,1654.0,52.0
6767,1182.0,52.0
6768,886.0,47.0
6769,1139.0,42.0
6770,1635.0,45.0
6771,1680.0,52.0
6772,1209.0,55.0
6773,873.0,49.0
6774,1142.0,40.0
6775,1650.0,36.0
6776,1746.0,38.0
6777,1271.0,41.0
6778,865.0,38.0
6779,1080.0,34.0
6780,1591.0,35.0
6781,1695.0,42.0
6782,1263.0,45.0
6783,927.0,41.0
6784,1127.0,34.0
6785,1612.0,35.0
6786,1734.0,44.0
6787,1324.0,52.0
6788,959.0,52.0
6789,1147.0,48.0
6790,1628.0,45.0
6791,1776.0,45.0
6792,1351.0,41.0
6793,944.0,31.0
6794,1127.0,21.0
6795,1597.0,20.0
6796,1747.0,29.0
6797,1375.0,41.0
6798,979.0,47.0
6799,1121.0,50.0
6800,1632.0,54.0
6801,1794.0,62.0
6802,1363.0,66.0
6803,912.0,62.0
6804,963.0,53.0
6805,1417.0,46.0
6806,1639.0,45.0
6807,1303.0,43.0
6808,919.0,36.0
6809,1032.0,28.0
6810,1440.0,26.0
6811,1634.0,33.0
6812,1294.0,39.0
6813,892.0,36.0
6814,990.0,21.0
6815,1442.0,1.0
6816,1696.0,-18.0
6817,1396.0,-40.0
6818,929.0,-65.0
6819,944.0,-84.0
6820,1439.0,-90.0
6821,1729.0,-79.0
6822,1424.0,-63.0
6823,913.0,-51.0
6824,1005.0,-48.0
6825,1604.0,-45.0
6826,1964.0,-37.0
6827,1743.0,-29.0
6828,1291.0,-25.0
6829,1338.0,-22.0
6830,1749.0,-16.0
6831,1984.0,-3.0
6832,1605.0,6.0
6833,1028.0,9.0
6834,968.0,6.0
6835,1374.0,10.0
6836,1695.0,30.0
6837,1001.0,146.0
6838,1389.0,192.0
6839,1664.0,234.0
6840,1435.0,255.0
6841,932.0,241.0
6842,874.0,191.0
6843,1348.0,119.0
6844,1707.0,42.0
6845,1467.0,-28.0
6846,926.0,-87.0
6847,831.0,-127.0
6848,1315.0,-141.0
6849,1680.0,-132.0
6850,885.0,-108.0
6851,1310.0,-117.0
6852,1695.0,-124.0
6853,1539.0,-125.0
6854,1081.0,-124.0
6855,963.0,-122.0
6856,1347.0,-113.0
6857,1721.0,-94.0
6858,1567.0,-73.0
6859,1073.0,-58.0
6860,934.0,-51.0
6861,1323.0,-44.0
6862,1725.0,-31.0
6863,1609.0,-14.0
6864,1153.0,-2.0
6865,1016.0,4.0
6866,1384.0,11.0
6867,1789.0,24.0
6868,1676.0,37.0
6869,1212.0,43.0
6870,1011.0,39.0
6871,1372.0,31.0
6872,1792.0,28.0
6873,1699.0,29.0
6874,1206.0,28.0
6875,980.0,26.0
6876,1371.0,29.0
6877,1838.0,41.0
6878,1788.0,57.0
6879,1277.0,67.0
6880,1000.0,68.0
6881,1256.0,64.0
6882,1756.0,63.0
6883,1774.0,61.0
6884,1286.0,55.0
6885,1003.0,42.0
6886,1318.0,29.0
6887,1783.0,27.0
6888,1755.0,32.0
6889,1281.0,37.0
6890,986.0,36.0
6891,1223.0,30.0
6892,1726.0,26.0
6893,1752.0,23.0
6894,1241.0,14.0
6895,909.0,-1.0
6896,1168.0,-14.0
6897,1644.0,-17.0
6898,1683.0,-10.0
6899,1260.0,-3.0
6900,935.0,-5.0
6901,1155.0,-12.0
6902,1639.0,-18.0
6903,1671.0,-22.0
6904,1208.0,-29.0
6905,901.0,-44.0
6906,1140.0,-60.0
6907,1619.0,-69.0
6908,1685.0,-70.0
6909,1240.0,-71.0
6910,871.0,-76.0
6911,1115.0,-79.0
6912,1632.0,-76.0
6913,1713.0,-65.0
6914,1259.0,-57.0
6915,869.0,-57.0
6916,1072.0,-61.0
6917,1559.0,-61.0
6918,1659.0,-54.0
6919,846.0,-47.0
6920,1013.0,-47.0
6921,1519.0,-41.0
6922,1686.0,-29.0
6923,1287.0,-19.0
6924,847.0,-16.0
6925,988.0,-19.0
6926,1513.0,-20.0
6927,1728.0,-17.0
6928,1320.0,-17.0
6929,896.0,-26.0
6930,1029.0,-38.0
6931,1491.0,-43.0
6932,1645.0,-39.0
6933,1248.0,-32.0
6934,843.0,-29.0
6935,988.0,-29.0
6936,1471.0,-24.0
6937,1639.0,-12.0
6938,1278.0,0.0
6939,841.0,5.0
6940,937.0,7.0
6941,1448.0,11.0
6942,1678.0,19.0
6943,1295.0,23.0
6944,843.0,16.0
6945,956.0,3.0
6946,1453.0,-6.0
6947,1692.0,-9.0
6948,1356.0,-7.0
6949,880.0,-9.0
6950,910.0,-11.0
6951,1379.0,29.0
6952,926.0,21.0
6953,955.0,10.0
6954,1426.0,6.0
6955,1754.0,15.0
6956,1485.0,31.0
6957,984.0,45.0
6958,943.0,54.0
6959,1372.0,62.0
6960,1725.0,70.0
6961,1485.0,73.0
6962,996.0,66.0
6963,903.0,51.0
6964,1325.0,39.0
6965,1638.0,39.0
6966,1372.0,47.0
6967,907.0,54.0
6968,847.0,58.0
6969,1285.0,62.0
6970,1643.0,67.0
6971,1415.0,69.0
6972,916.0,61.0
6973,784.0,45.0
6974,1216.0,29.0
6975,1612.0,20.0
6976,1423.0,12.0
6977,906.0,0.0
6978,792.0,-19.0
6979,1222.0,-35.0
6980,1611.0,-41.0
6981,1426.0,-40.0
6982,937.0,-39.0
6983,775.0,-41.0
6984,1211.0,-41.0
6985,1614.0,-37.0
6986,1490.0,-31.0
6987,1051.0,-30.0
6988,966.0,-36.0
6989,1380.0,-38.0
6990,1913.0,-31.0
6991,1859.0,-19.0
6992,1368.0,-10.0
6993,1073.0,-8.0
6994,1324.0,-8.0
6995,1668.0,-2.0
6996,1535.0,6.0
6997,991.0,14.0
6998,783.0,21.0
6999,1143.0,36.0
7000,1587.0,70.0
7001,1516.0,117.0
7002,1006.0,166.0
7003,770.0,205.0
7004,1081.0,229.0
7005,1473.0,234.0
7006,1380.0,214.0
7007,952.0,162.0
7008,711.0,84.0
7009,1076.0,0.0
7010,1506.0,-68.0
7011,1432.0,-112.0
7012,943.0,-135.0
7013,698.0,-144.0
7014,989.0,-143.0
7015,1447.0,-134.0
7016,1476.0,-125.0
7017,1029.0,-127.0
7018,742.0,-139.0
7019,1020.0,-150.0
7020,1467.0,-149.0
7021,1444.0,-134.0
7022,960.0,-112.0
7023,848.0,-93.0
7024,2291.0,-58.0
7025,2291.0,-40.0
7026,2027.0,-28.0
7027,1702.0,-23.0
7028,1964.0,-19.0
7029,2296.0,-10.0
7030,2282.0,0.0
7031,1855.0,5.0
7032,1551.0,9.0
7033,1862.0,29.0
7034,2287.0,83.0
7035,2287.0,179.0
