sample,raw,filtered
0,2282.0,0.0
1,1862.0,0.0
2,861.0,0.0
3,233.0,0.0
4,65.0,0.0
5,124.0,0.0
6,78.0,-5.0
7,106.0,-17.0
8,151.0,-29.0
9,201.0,-18.0
10,224.0,41.0
11,188.0,161.0
12,183.0,326.0
13,2282.0,-209.0
14,2282.0,-236.0
15,2280.0,-262.0
16,2282.0,-300.0
17,2276.0,-360.0
18,2276.0,-449.0
19,2155.0,-562.0
20,1619.0,-681.0
21,1224.0,-779.0
22,1067.0,-829.0
23,1060.0,-817.0
24,1083.0,-741.0
25,1110.0,-620.0
26,1123.0,-482.0
27,-27.0,-1079.0
28,-26.0,-959.0
29,-23.0,-853.0
30,-23.0,-771.0
31,-24.0,-710.0
32,-24.0,-658.0
33,-25.0,-603.0
34,-22.0,-534.0
35,-21.0,-452.0
36,-23.0,-359.0
37,-25.0,-263.0
38,-23.0,-171.0
39,-24.0,-91.0
40,-21.0,-24.0
41,-23.0,29.0
42,-25.0,72.0
43,-20.0,110.0
44,-33.0,144.0
45,-24.0,177.0
46,-25.0,208.0
47,-22.0,239.0
48,-19.0,270.0
49,-19.0,298.0
50,-25.0,326.0
51,-27.0,351.0
52,-21.0,375.0
53,-22.0,397.0
54,-19.0,418.0
55,-25.0,437.0
56,-27.0,454.0
57,-25.0,471.0
58,-26.0,486.0
59,-19.0,501.0
60,-20.0,514.0
61,-19.0,527.0
62,-25.0,538.0
63,-23.0,548.0
64,-20.0,557.0
65,-25.0,564.0
66,-21.0,571.0
67,-22.0,576.0
68,-29.0,580.0
69,-23.0,584.0
70,-18.0,587.0
71,-26.0,589.0
72,-20.0,590.0
73,-22.0,591.0
74,-26.0,591.0
75,-19.0,590.0
76,-25.0,588.0
77,-16.0,585.0
78,-16.0,581.0
79,-21.0,576.0
80,-25.0,571.0
81,-16.0,566.0
82,-24.0,560.0
83,-20.0,553.0
84,-21.0,547.0
85,-22.0,540.0
86,-26.0,532.0
87,-23.0,524.0
88,-21.0,515.0
89,-22.0,506.0
90,-24.0,497.0
91,-27.0,488.0
92,-25.0,478.0
93,-21.0,467.0
94,-22.0,456.0
95,-23.0,445.0
96,-20.0,434.0
97,-26.0,422.0
98,-20.0,410.0
99,-23.0,398.0
100,-27.0,386.0
101,-23.0,373.0
102,-18.0,361.0
103,-25.0,349.0
104,-27.0,337.0
105,-25.0,324.0
106,-25.0,312.0
107,-16.0,300.0
108,-19.0,276.0
109,-27.0,264.0
110,-25.0,252.0
111,-21.0,240.0
112,-21.0,228.0
113,-22.0,215.0
114,-27.0,203.0
115,-24.0,191.0
116,-26.0,180.0
117,-25.0,168.0
118,-24.0,157.0
119,-26.0,146.0
120,-23.0,135.0
121,-23.0,124.0
122,-20.0,113.0
123,-26.0,103.0
124,-18.0,92.0
125,-26.0,81.0
126,-19.0,71.0
127,-27.0,60.0
128,-23.0,50.0
129,-27.0,40.0
130,-24.0,31.0
131,-24.0,22.0
132,-24.0,13.0
133,-23.0,5.0
134,-20.0,-2.0
135,-23.0,-10.0
136,-20.0,-18.0
137,-23.0,-26.0
138,-22.0,-33.0
139,-25.0,-41.0
140,-25.0,-48.0
141,-22.0,-55.0
142,-24.0,-62.0
143,-27.0,-69.0
144,-19.0,-75.0
145,-22.0,-80.0
146,-24.0,-86.0
147,-20.0,-91.0
148,-24.0,-96.0
149,-24.0,-101.0
150,-23.0,-106.0
151,-29.0,-111.0
152,-28.0,-116.0
153,-21.0,-121.0
154,-21.0,-126.0
155,-24.0,-130.0
156,-26.0,-134.0
157,-21.0,-138.0
158,-23.0,-141.0
159,-24.0,-144.0
160,-23.0,-148.0
161,-33.0,-151.0
162,-25.0,-155.0
163,-23.0,-158.0
164,-21.0,-161.0
165,-23.0,-164.0
166,-25.0,-166.0
167,-23.0,-168.0
168,-22.0,-169.0
169,-33.0,-171.0
170,-20.0,-172.0
171,-20.0,-173.0
172,-25.0,-175.0
173,-27.0,-177.0
174,-22.0,-178.0
175,-24.0,-179.0
176,-21.0,-175.0
177,-20.0,-174.0
178,-16.0,-173.0
179,-24.0,-171.0
180,-27.0,-170.0
181,-25.0,-169.0
182,-23.0,-168.0
183,-25.0,-166.0
184,-24.0,-165.0
185,-23.0,-163.0
186,-18.0,-162.0
187,-19.0,-160.0
188,-22.0,-157.0
189,-16.0,-155.0
190,-22.0,-153.0
191,-27.0,-151.0
192,-22.0,-149.0
193,-16.0,-147.0
194,-24.0,-146.0
195,-25.0,-144.0
196,-22.0,-142.0
197,-27.0,-140.0
198,-20.0,-137.0
199,-24.0,-133.0
200,-23.0,-101.0
201,-22.0,-99.0
202,-26.0,-96.0
203,-23.0,-94.0
204,-19.0,-91.0
205,-22.0,-88.0
206,-22.0,-85.0
207,-15.0,-82.0
208,-20.0,-79.0
209,-20.0,-75.0
210,-19.0,-73.0
211,-25.0,-70.0
212,-25.0,-68.0
213,-25.0,-66.0
214,-20.0,-64.0
215,-22.0,-59.0
216,-21.0,-56.0
217,-21.0,-53.0
218,-24.0,-50.0
219,-22.0,-47.0
220,-23.0,-44.0
221,-20.0,-42.0
222,-23.0,-40.0
223,-21.0,-39.0
224,-24.0,-37.0
225,-24.0,-36.0
226,-33.0,-34.0
227,-20.0,-25.0
228,-19.0,-23.0
229,-29.0,-21.0
230,-19.0,-19.0
231,-16.0,-17.0
232,-23.0,-15.0
233,-16.0,-14.0
234,-20.0,-13.0
235,-23.0,9.0
236,-25.0,10.0
237,-25.0,10.0
238,-23.0,11.0
239,-27.0,12.0
240,-22.0,13.0
241,-25.0,14.0
242,-17.0,15.0
243,-21.0,16.0
244,-20.0,17.0
245,-20.0,17.0
246,-22.0,18.0
247,-25.0,18.0
248,-23.0,19.0
249,-18.0,19.0
250,-21.0,20.0
251,-21.0,21.0
252,-20.0,22.0
253,-23.0,23.0
254,-20.0,25.0
255,-24.0,26.0
256,-25.0,28.0
257,-18.0,29.0
258,-22.0,29.0
259,-23.0,32.0
260,-23.0,32.0
261,-20.0,32.0
262,-18.0,32.0
263,-18.0,32.0
264,-24.0,32.0
265,-22.0,32.0
266,-25.0,32.0
267,-22.0,32.0
268,-25.0,32.0
269,-25.0,33.0
270,-16.0,33.0
271,-24.0,33.0
272,-22.0,33.0
273,-20.0,33.0
274,-16.0,34.0
275,-28.0,34.0
276,-23.0,35.0
277,-25.0,34.0
278,-20.0,34.0
279,-19.0,33.0
280,-18.0,32.0
281,-20.0,32.0
282,-23.0,32.0
283,-14.0,32.0
284,-25.0,32.0
285,-20.0,32.0
286,-23.0,32.0
287,-24.0,32.0
288,-25.0,31.0
289,-20.0,30.0
290,-29.0,30.0
291,-29.0,30.0
292,-26.0,30.0
293,-16.0,30.0
294,-22.0,30.0
295,-26.0,30.0
296,-16.0,30.0
297,-21.0,29.0
298,-22.0,28.0
299,-20.0,27.0
300,-22.0,26.0
301,-26.0,25.0
302,-24.0,23.0
303,-15.0,23.0
304,-22.0,22.0
305,-23.0,22.0
306,-29.0,22.0
307,-29.0,23.0
308,-21.0,23.0
309,-20.0,23.0
310,-25.0,23.0
311,-25.0,23.0
312,-23.0,22.0
313,-23.0,22.0
314,-25.0,21.0
315,-20.0,21.0
316,-19.0,20.0
317,-21.0,20.0
318,-21.0,19.0
319,-25.0,18.0
320,-27.0,18.0
321,-23.0,17.0
322,-26.0,16.0
323,-24.0,16.0
324,-23.0,16.0
325,-18.0,15.0
326,-23.0,15.0
327,-16.0,16.0
328,-21.0,16.0
329,-25.0,16.0
330,-22.0,15.0
331,-23.0,15.0
332,-24.0,14.0
333,-21.0,13.0
334,-26.0,13.0
335,-24.0,12.0
336,-26.0,12.0
337,-18.0,12.0
338,-25.0,12.0
339,-24.0,13.0
340,-20.0,13.0
341,-23.0,12.0
342,-25.0,12.0
343,-22.0,11.0
344,-21.0,10.0
345,-27.0,9.0
346,-16.0,8.0
347,-27.0,8.0
348,-17.0,8.0
349,-23.0,7.0
350,-25.0,7.0
351,-22.0,7.0
352,-21.0,7.0
353,-28.0,7.0
354,-22.0,6.0
355,-18.0,6.0
356,-18.0,6.0
357,-22.0,6.0
358,-18.0,5.0
359,-22.0,5.0
360,-29.0,5.0
361,-23.0,5.0
362,-20.0,5.0
363,-21.0,5.0
364,-22.0,4.0
365,-21.0,4.0
366,-18.0,3.0
367,-23.0,3.0
368,-24.0,4.0
369,-23.0,4.0
370,-16.0,4.0
371,-18.0,4.0
372,-24.0,3.0
373,-22.0,2.0
374,-25.0,2.0
375,-19.0,1.0
376,-20.0,1.0
377,-20.0,1.0
378,-20.0,1.0
379,-18.0,1.0
380,-18.0,1.0
381,-20.0,1.0
382,-16.0,1.0
383,-23.0,1.0
384,-20.0,0.0
385,-19.0,0.0
386,-24.0,0.0
387,-23.0,0.0
388,-20.0,0.0
389,-22.0,0.0
390,-21.0,0.0
391,-27.0,0.0
392,-16.0,0.0
393,-20.0,0.0
394,-26.0,0.0
395,-21.0,0.0
396,-23.0,0.0
397,-27.0,0.0
398,-20.0,-1.0
399,-20.0,-2.0
400,-19.0,-2.0
401,-20.0,-2.0
402,-24.0,-3.0
403,-22.0,-3.0
404,-21.0,-3.0
405,-17.0,-3.0
406,-23.0,-3.0
407,-25.0,-3.0
408,-18.0,-4.0
409,-26.0,-4.0
410,-20.0,-4.0
411,-25.0,-3.0
412,-27.0,-3.0
413,-20.0,-3.0
414,-23.0,-2.0
415,-23.0,-2.0
416,-22.0,-3.0
417,-20.0,-3.0
418,-30.0,-3.0
419,-25.0,-3.0
420,-19.0,-4.0
421,-20.0,-4.0
422,-23.0,-4.0
423,-25.0,-3.0
424,-20.0,-3.0
425,-20.0,-3.0
426,-23.0,-2.0
427,-24.0,-2.0
428,-23.0,-2.0
429,-18.0,-2.0
430,-18.0,-3.0
431,-20.0,-3.0
432,-23.0,-3.0
433,-20.0,-3.0
434,-22.0,-3.0
435,-11.0,-2.0
436,-22.0,-2.0
437,-29.0,-2.0
438,-19.0,-2.0
439,-24.0,-2.0
440,-27.0,-1.0
441,-23.0,-1.0
442,-24.0,-1.0
443,-25.0,-1.0
444,-23.0,0.0
445,-25.0,0.0
446,-24.0,0.0
447,-20.0,0.0
448,-27.0,-1.0
449,-25.0,-3.0
450,-25.0,-2.0
451,-20.0,-2.0
452,-18.0,-1.0
453,-23.0,-1.0
454,-20.0,0.0
455,-16.0,0.0
456,-27.0,0.0
457,-18.0,0.0
458,-25.0,0.0
459,-21.0,-1.0
460,-26.0,-1.0
461,-22.0,-2.0
462,-21.0,-2.0
463,-25.0,-2.0
464,-23.0,-1.0
465,-20.0,0.0
466,-21.0,0.0
467,-20.0,0.0
468,-19.0,0.0
469,-25.0,0.0
470,-24.0,0.0
471,-16.0,0.0
472,-21.0,0.0
473,-20.0,0.0
474,-24.0,0.0
475,-24.0,0.0
476,-22.0,0.0
477,-24.0,0.0
478,-16.0,0.0
479,-22.0,0.0
480,-19.0,0.0
481,-27.0,0.0
482,-22.0,0.0
483,-26.0,0.0
484,-25.0,0.0
485,-22.0,0.0
486,-24.0,0.0
487,-24.0,0.0
488,-24.0,0.0
489,-19.0,0.0
490,-19.0,0.0
491,-22.0,0.0
492,-16.0,0.0
493,-22.0,0.0
494,-27.0,-1.0
495,-16.0,-1.0
496,-26.0,-2.0
497,-20.0,-2.0
498,-26.0,-2.0
499,-19.0,-2.0
500,-18.0,-2.0
501,-22.0,-1.0
502,-15.0,0.0
503,-23.0,0.0
504,-21.0,0.0
505,-23.0,0.0
506,-24.0,0.0
507,-23.0,0.0
508,-22.0,0.0
509,-20.0,0.0
510,-21.0,0.0
511,-23.0,0.0
512,-22.0,0.0
513,-16.0,0.0
514,-26.0,1.0
515,-27.0,1.0
516,-23.0,1.0
517,-29.0,0.0
518,-25.0,0.0
519,-22.0,0.0
520,-27.0,0.0
521,-19.0,-1.0
522,-25.0,0.0
523,-27.0,0.0
524,-22.0,0.0
525,-25.0,0.0
526,-25.0,0.0
527,-22.0,0.0
528,-24.0,-1.0
529,-29.0,-2.0
530,-22.0,-2.0
531,-20.0,-2.0
532,-25.0,-2.0
533,-29.0,-2.0
534,-30.0,-2.0
535,-24.0,-1.0
536,-17.0,-1.0
537,-24.0,-1.0
538,-22.0,-1.0
539,-21.0,-1.0
540,-25.0,-1.0
541,-23.0,0.0
542,-21.0,0.0
543,-23.0,0.0
544,-22.0,0.0
545,-22.0,0.0
546,-21.0,0.0
547,-20.0,0.0
548,-22.0,0.0
549,-22.0,0.0
550,-21.0,0.0
551,-22.0,1.0
552,-25.0,1.0
553,-23.0,1.0
554,-22.0,1.0
555,-25.0,1.0
556,-20.0,1.0
557,-15.0,1.0
558,-21.0,2.0
559,-25.0,2.0
560,-25.0,2.0
561,-25.0,2.0
562,-19.0,2.0
563,-21.0,1.0
564,-25.0,1.0
565,-25.0,0.0
566,-21.0,0.0
567,-25.0,0.0
568,-19.0,0.0
569,-19.0,0.0
570,-24.0,1.0
571,-22.0,1.0
572,-23.0,0.0
573,-21.0,0.0
574,-24.0,0.0
575,-27.0,0.0
576,-22.0,0.0
577,-21.0,0.0
578,-26.0,0.0
579,-16.0,0.0
580,-18.0,0.0
581,-25.0,0.0
582,-20.0,0.0
583,-25.0,0.0
584,-23.0,0.0
585,-19.0,0.0
586,-29.0,0.0
587,-19.0,0.0
588,-25.0,0.0
589,-20.0,0.0
590,-20.0,0.0
591,-21.0,0.0
592,-24.0,0.0
593,-20.0,0.0
594,-22.0,0.0
595,-23.0,0.0
596,-22.0,0.0
597,-22.0,0.0
598,-20.0,0.0
599,-23.0,0.0
600,-20.0,0.0
601,-19.0,0.0
602,-20.0,0.0
603,-24.0,0.0
604,-27.0,0.0
605,-23.0,0.0
606,-19.0,0.0
607,-20.0,0.0
608,-20.0,0.0
609,-25.0,0.0
610,-22.0,0.0
611,-16.0,0.0
612,-23.0,0.0
613,-24.0,0.0
614,-26.0,0.0
615,-20.0,0.0
616,-25.0,0.0
617,-25.0,0.0
618,-25.0,0.0
619,-24.0,0.0
620,-26.0,0.0
621,-26.0,0.0
622,-19.0,0.0
623,-16.0,0.0
624,-25.0,0.0
625,-20.0,0.0
626,-25.0,0.0
627,-20.0,0.0
628,-23.0,-1.0
629,-24.0,-1.0
630,-25.0,-1.0
631,-22.0,-1.0
632,-21.0,-2.0
633,-22.0,-1.0
634,-23.0,-1.0
635,-24.0,-1.0
636,-22.0,0.0
637,-16.0,0.0
638,-28.0,0.0
639,-26.0,0.0
640,-23.0,0.0
641,-25.0,0.0
642,-23.0,0.0
643,-16.0,0.0
644,-23.0,0.0
645,-22.0,0.0
646,-25.0,0.0
647,-28.0,0.0
648,-26.0,0.0
649,-20.0,0.0
650,-23.0,0.0
651,-20.0,0.0
652,-20.0,0.0
653,-21.0,0.0
654,-21.0,0.0
655,-16.0,0.0
656,-29.0,0.0
657,-19.0,0.0
658,-20.0,0.0
659,-27.0,0.0
660,209.0,0.0
661,745.0,0.0
662,1096.0,0.0
663,1237.0,0.0
664,1251.0,0.0
665,1227.0,0.0
666,1191.0,0.0
667,1909.0,-6.0
668,2279.0,-21.0
669,2279.0,-42.0
670,2283.0,-48.0
671,2288.0,2.0
672,2279.0,159.0
673,2274.0,466.0
674,2282.0,941.0
675,2279.0,1573.0
676,2273.0,3135.0
677,2005.0,3943.0
678,1515.0,4685.0
679,1220.0,5317.0
680,1132.0,5817.0
681,1152.0,6174.0
682,1200.0,6378.0
683,1196.0,6416.0
684,1189.0,6271.0
685,1177.0,5940.0
686,1183.0,5432.0
687,1183.0,4759.0
688,-22.0,-398.0
689,-25.0,-1553.0
690,-23.0,-2612.0
691,-23.0,-3496.0
692,-22.0,-4138.0
693,-23.0,-4506.0
694,-25.0,-4619.0
695,-25.0,-4557.0
696,36.0,-4436.0
697,555.0,-4374.0
698,987.0,-4458.0
699,1169.0,-4722.0
700,1207.0,-5135.0
701,1181.0,-5614.0
702,1157.0,-6046.0
703,1153.0,-6323.0
704,1155.0,-6379.0
705,1151.0,-6199.0
706,1147.0,-5806.0
707,1138.0,-5237.0
708,1101.0,-4526.0
709,787.0,-3699.0
710,-20.0,-1776.0
711,-25.0,-743.0
712,-20.0,265.0
713,-24.0,1169.0
714,-21.0,1886.0
715,-19.0,2356.0
716,-24.0,2555.0
717,-21.0,2493.0
718,-25.0,2204.0
719,-21.0,1726.0
720,-21.0,1098.0
721,1088.0,354.0
722,2279.0,-469.0
723,2281.0,-1329.0
724,2278.0,-2166.0
725,2278.0,-2903.0
726,2282.0,-3464.0
727,2281.0,-3792.0
728,2271.0,-3871.0
729,2226.0,-3722.0
730,1381.0,-3375.0
731,178.0,-2848.0
732,-21.0,-74.0
733,-23.0,1255.0
734,-20.0,2713.0
735,-18.0,4180.0
736,-27.0,5489.0
737,-20.0,6451.0
738,-24.0,6896.0
739,-25.0,6717.0
740,-26.0,-3138.0
741,-19.0,-2498.0
742,-26.0,-1226.0
743,-20.0,-966.0
744,-24.0,-738.0
745,-20.0,-528.0
746,-16.0,-333.0
747,-22.0,-163.0
748,-20.0,-22.0
749,-26.0,89.0
750,-27.0,178.0
751,-25.0,252.0
752,-21.0,318.0
753,-21.0,381.0
754,-21.0,442.0
755,-24.0,504.0
756,-31.0,565.0
757,-19.0,623.0
758,-27.0,679.0
759,-20.0,730.0
760,-17.0,778.0
761,-26.0,820.0
762,-23.0,859.0
763,-20.0,893.0
764,-26.0,950.0
765,-21.0,973.0
766,-20.0,994.0
767,-23.0,1012.0
768,-24.0,1028.0
769,-26.0,1040.0
770,-22.0,1051.0
771,-22.0,1058.0
772,-20.0,969.0
773,-22.0,953.0
774,-23.0,937.0
775,-20.0,920.0
776,-22.0,903.0
777,-19.0,885.0
778,-22.0,866.0
779,-27.0,846.0
780,-16.0,826.0
781,-25.0,805.0
782,-26.0,782.0
783,-24.0,758.0
784,-22.0,734.0
785,-20.0,710.0
786,-22.0,685.0
787,-24.0,661.0
788,-26.0,638.0
789,-25.0,616.0
790,-22.0,594.0
791,-25.0,572.0
792,-23.0,551.0
793,-22.0,528.0
794,-24.0,506.0
795,-20.0,483.0
796,-22.0,461.0
797,-25.0,439.0
798,-26.0,417.0
799,-23.0,396.0
800,-16.0,376.0
801,-22.0,356.0
802,-26.0,336.0
803,-20.0,316.0
804,-30.0,296.0
805,-19.0,277.0
806,-24.0,259.0
807,-16.0,241.0
808,-1.0,224.0
809,495.0,207.0
810,948.0,191.0
811,1143.0,174.0
812,1190.0,158.0
813,1175.0,141.0
814,1162.0,125.0
815,1151.0,106.0
816,932.0,82.0
817,383.0,52.0
818,-22.0,28.0
819,-16.0,35.0
820,122.0,108.0
821,366.0,283.0
822,407.0,581.0
823,205.0,1001.0
824,231.0,1510.0
825,691.0,2039.0
826,1523.0,2489.0
827,1812.0,2746.0
828,1932.0,2719.0
829,2272.0,2370.0
830,2280.0,1726.0
831,2272.0,877.0
832,2280.0,-51.0
833,2277.0,-920.0
834,2275.0,-1597.0
835,2275.0,-1981.0
836,2280.0,-2015.0
837,2277.0,-1701.0
838,2282.0,-1086.0
839,2275.0,-249.0
840,2280.0,712.0
841,2280.0,1692.0
842,2280.0,2581.0
843,2278.0,3276.0
844,2271.0,3705.0
845,2278.0,3278.0
846,2275.0,2721.0
847,2277.0,2091.0
848,2271.0,1466.0
849,2276.0,905.0
850,2279.0,441.0
851,2276.0,78.0
852,2031.0,-202.0
853,1537.0,-425.0
854,1234.0,-613.0
855,1122.0,-778.0
856,2104.0,-3155.0
857,2276.0,-3589.0
858,2274.0,-3932.0
859,2106.0,-4147.0
860,1720.0,-4233.0
861,1604.0,-4206.0
862,1756.0,-4089.0
863,1697.0,-3894.0
864,1095.0,-3613.0
865,662.0,-3220.0
866,635.0,-2681.0
867,712.0,-1978.0
868,525.0,-1139.0
869,-16.0,-244.0
870,-21.0,1589.0
871,-24.0,1606.0
872,-20.0,1283.0
873,-25.0,681.0
874,-16.0,-96.0
875,-23.0,-933.0
876,-22.0,-1733.0
877,-17.0,-2432.0
878,-22.0,-3001.0
879,-25.0,-3427.0
880,-17.0,-3712.0
881,-23.0,-3857.0
882,-23.0,-3869.0
883,-26.0,-3749.0
884,-22.0,-3506.0
885,-26.0,-3156.0
886,-21.0,-2726.0
887,-18.0,-2254.0
888,-20.0,-1780.0
889,-21.0,-1338.0
890,-21.0,-951.0
891,-19.0,-630.0
892,-24.0,-373.0
893,-22.0,395.0
894,-18.0,473.0
895,-26.0,543.0
896,-27.0,604.0
897,-23.0,659.0
898,-21.0,708.0
899,-22.0,752.0
900,-20.0,793.0
901,-20.0,832.0
902,-20.0,868.0
903,-20.0,902.0
904,-23.0,934.0
905,-23.0,965.0
906,-23.0,994.0
907,-16.0,1020.0
908,-27.0,1044.0
909,-22.0,1065.0
910,-24.0,1083.0
911,-22.0,1098.0
912,-25.0,1111.0
913,-24.0,1122.0
914,-20.0,1130.0
915,-23.0,1136.0
916,-23.0,1139.0
917,-25.0,1140.0
918,-23.0,1138.0
919,-18.0,1134.0
920,-25.0,1128.0
921,-21.0,1119.0
922,-24.0,1110.0
923,-27.0,1099.0
924,-21.0,1088.0
925,-19.0,1076.0
926,157.0,1063.0
927,352.0,1050.0
928,446.0,1036.0
929,982.0,1021.0
930,1866.0,1006.0
931,2280.0,989.0
932,2286.0,971.0
933,2280.0,950.0
934,2277.0,926.0
935,2277.0,900.0
936,2281.0,878.0
937,2282.0,868.0
938,2279.0,895.0
939,2280.0,3486.0
940,2281.0,4155.0
941,2279.0,4667.0
942,2279.0,4926.0
943,2289.0,4875.0
944,2281.0,4520.0
945,2278.0,3920.0
946,2280.0,3174.0
947,2280.0,2392.0
948,2280.0,1669.0
949,2267.0,1070.0
950,435.0,619.0
951,-25.0,306.0
952,-22.0,95.0
953,-25.0,-282.0
954,-24.0,-383.0
955,-25.0,-464.0
956,-21.0,-524.0
957,-21.0,-593.0
958,-21.0,-730.0
959,-16.0,-1002.0
960,-23.0,-1459.0
961,-19.0,-2111.0
962,-20.0,-2920.0
963,-22.0,-3792.0
964,-23.0,-4597.0
965,-16.0,-5189.0
966,-25.0,-5455.0
967,-26.0,-5346.0
968,-20.0,-4895.0
969,-28.0,-4196.0
970,-23.0,-3379.0
971,-20.0,-2578.0
972,-21.0,-1892.0
973,-16.0,-1377.0
974,-28.0,-1039.0
975,-22.0,-653.0
976,-23.0,-576.0
977,-20.0,-488.0
978,-16.0,-394.0
979,-16.0,-306.0
980,-25.0,-232.0
981,-26.0,-175.0
982,-21.0,-132.0
983,-26.0,-97.0
984,-18.0,-67.0
985,-24.0,-38.0
986,465.0,-9.0
987,2097.0,19.0
988,2281.0,48.0
989,2278.0,77.0
990,2276.0,105.0
991,2281.0,131.0
992,2275.0,152.0
993,2276.0,163.0
994,2276.0,161.0
995,2280.0,158.0
996,2273.0,195.0
997,2274.0,332.0
998,2278.0,628.0
999,2283.0,1114.0
1000,2284.0,1780.0
1001,2284.0,2569.0
1002,2271.0,3375.0
1003,2285.0,4062.0
1004,2281.0,4497.0
1005,2279.0,4592.0
1006,2277.0,4328.0
1007,2280.0,3761.0
1008,2279.0,1412.0
1009,2278.0,791.0
1010,2282.0,348.0
1011,2286.0,73.0
1012,2279.0,-76.0
1013,2283.0,-159.0
1014,2273.0,-222.0
1015,2273.0,-291.0
1016,2282.0,-371.0
1017,2280.0,-453.0
1018,2282.0,-524.0
1019,2280.0,-579.0
1020,2275.0,-617.0
1021,2274.0,-641.0
1022,2263.0,-655.0
1023,667.0,-666.0
1024,-20.0,-676.0
1025,-22.0,-686.0
1026,-28.0,-699.0
1027,-25.0,-713.0
1028,-22.0,-726.0
1029,-21.0,-733.0
1030,-16.0,-715.0
1031,-26.0,-791.0
1032,592.0,-1001.0
1033,2273.0,-1391.0
1034,2277.0,-1969.0
1035,2284.0,-2699.0
1036,2279.0,-3495.0
1037,2277.0,-4232.0
1038,2278.0,-4773.0
1039,2285.0,-5015.0
1040,2281.0,-4909.0
1041,2271.0,-4467.0
1042,2277.0,-3736.0
1043,2277.0,-2781.0
1044,2285.0,-1678.0
1045,2279.0,-503.0
1046,2280.0,670.0
1047,2275.0,1773.0
1048,2281.0,2731.0
1049,2283.0,3464.0
1050,2277.0,3901.0
1051,2284.0,4000.0
1052,2281.0,2593.0
1053,2277.0,1870.0
1054,2279.0,1209.0
1055,2280.0,687.0
1056,2276.0,336.0
1057,2287.0,141.0
1058,2284.0,57.0
1059,2281.0,27.0
1060,2288.0,5.0
1061,2274.0,-30.0
1062,2279.0,-84.0
1063,2278.0,-142.0
1064,2277.0,-193.0
1065,2279.0,-230.0
1066,2280.0,-252.0
1067,1547.0,-261.0
1068,-26.0,-263.0
1069,-26.0,-262.0
1070,-24.0,-261.0
1071,-22.0,-260.0
1072,-24.0,-260.0
1073,-19.0,-259.0
1074,2284.0,-214.0
1075,2279.0,-250.0
1076,2281.0,-400.0
1077,2280.0,-719.0
1078,2283.0,-1236.0
1079,2283.0,-1938.0
1080,2277.0,-2756.0
1081,2283.0,-3555.0
1082,2283.0,3213.0
1083,2280.0,2565.0
1084,2276.0,1898.0
1085,2285.0,920.0
1086,2283.0,666.0
1087,2281.0,532.0
1088,2278.0,463.0
1089,2275.0,411.0
1090,2277.0,348.0
1091,2279.0,268.0
1092,2276.0,182.0
1093,2279.0,105.0
1094,2275.0,49.0
1095,2273.0,17.0
1096,2277.0,3.0
1097,2281.0,2.0
1098,2281.0,5.0
1099,2276.0,8.0
1100,2275.0,9.0
1101,2279.0,6.0
1102,2273.0,1.0
1103,2070.0,-5.0
1104,1126.0,-13.0
1105,83.0,-20.0
1106,-25.0,-27.0
1107,-26.0,-32.0
1108,-22.0,-29.0
1109,-22.0,-14.0
1110,-20.0,7.0
1111,-20.0,11.0
1112,-24.0,-51.0
1113,-22.0,-236.0
1114,-25.0,-590.0
1115,-26.0,-1122.0
1116,-20.0,-1802.0
1117,-28.0,-2550.0
1118,-25.0,-3252.0
1119,-23.0,-3779.0
1120,-22.0,-4021.0
1121,-26.0,-3509.0
1122,-24.0,-2850.0
1123,-24.0,-2065.0
1124,-21.0,-1274.0
1125,-28.0,-575.0
1126,-21.0,-23.0
1127,-22.0,366.0
1128,-22.0,620.0
1129,-19.0,782.0
1130,-25.0,896.0
1131,-21.0,993.0
1132,-22.0,1084.0
1133,-23.0,1162.0
1134,-25.0,1219.0
1135,-19.0,1248.0
1136,-24.0,1251.0
1137,-19.0,1235.0
1138,-23.0,1208.0
1139,-20.0,1179.0
1140,-29.0,1152.0
1141,-20.0,1130.0
1142,-19.0,1112.0
1143,-24.0,1097.0
1144,-19.0,1083.0
1145,-21.0,1070.0
1146,-25.0,1056.0
1147,-20.0,1041.0
1148,-22.0,1025.0
1149,-20.0,1007.0
1150,-25.0,989.0
1151,-25.0,971.0
1152,-25.0,952.0
1153,-25.0,933.0
1154,-26.0,913.0
1155,-27.0,893.0
1156,-25.0,873.0
1157,-20.0,853.0
1158,-19.0,832.0
1159,-25.0,812.0
1160,-25.0,791.0
1161,-21.0,770.0
1162,-18.0,749.0
1163,-21.0,727.0
1164,-20.0,705.0
1165,-26.0,682.0
1166,149.0,660.0
1167,610.0,639.0
1168,740.0,618.0
1169,791.0,599.0
1170,1169.0,580.0
1171,1694.0,562.0
1172,1926.0,543.0
1173,1782.0,522.0
1174,1710.0,497.0
1175,2004.0,472.0
1176,2275.0,458.0
1177,2267.0,470.0
1178,2274.0,526.0
1179,2273.0,645.0
1180,2278.0,845.0
1181,2280.0,1133.0
1182,2281.0,1499.0
1183,2284.0,1907.0
1184,2281.0,2309.0
1185,2276.0,2653.0
1186,2269.0,2896.0
1187,2275.0,3006.0
1188,2280.0,2969.0
1189,2274.0,2794.0
1190,2273.0,2509.0
1191,2276.0,2152.0
1192,2271.0,1759.0
1193,2284.0,1359.0
1194,2284.0,971.0
1195,2277.0,607.0
1196,2277.0,274.0
1197,2281.0,-23.0
1198,2278.0,-284.0
1199,2282.0,-503.0
1200,2280.0,-681.0
1201,2277.0,-818.0
1202,2279.0,-1024.0
1203,2281.0,-1050.0
1204,2271.0,-1067.0
1205,2281.0,-1081.0
1206,2279.0,-1090.0
1207,2280.0,-1096.0
1208,2281.0,-1100.0
1209,2280.0,-1103.0
1210,2278.0,-1105.0
1211,2276.0,-1108.0
1212,2279.0,-1111.0
1213,2285.0,-1113.0
1214,2274.0,-1115.0
1215,2281.0,-1116.0
1216,2278.0,-1115.0
1217,2280.0,-1111.0
1218,2278.0,-1105.0
1219,2284.0,-1097.0
1220,2283.0,-1087.0
1221,2284.0,-1077.0
1222,2271.0,-1066.0
1223,2279.0,-1055.0
1224,2284.0,-1022.0
1225,2288.0,-1010.0
1226,2281.0,-997.0
1227,2279.0,-982.0
1228,2270.0,-967.0
1229,2288.0,-950.0
1230,2285.0,-934.0
1231,2277.0,-917.0
1232,2285.0,-900.0
1233,2278.0,-884.0
1234,2276.0,-868.0
1235,2279.0,-852.0
1236,2281.0,-835.0
1237,2284.0,-817.0
1238,2280.0,-798.0
1239,2283.0,-778.0
1240,2283.0,-757.0
1241,2279.0,-737.0
1242,2279.0,-717.0
1243,2275.0,-698.0
1244,2280.0,-680.0
1245,2272.0,-662.0
1246,2280.0,-627.0
1247,2275.0,-609.0
1248,2273.0,-590.0
1249,2272.0,-571.0
1250,2274.0,-551.0
1251,2283.0,-531.0
1252,2281.0,-512.0
1253,2286.0,-493.0
1254,2285.0,-476.0
1255,2275.0,-459.0
1256,2280.0,-443.0
1257,2281.0,-411.0
1258,2280.0,-394.0
1259,2271.0,-377.0
1260,2273.0,-359.0
1261,2275.0,-340.0
1262,2280.0,-320.0
1263,2273.0,-300.0
1264,2279.0,-279.0
1265,2271.0,-259.0
1266,2278.0,-240.0
1267,2279.0,-222.0
1268,2181.0,-193.0
1269,2234.0,-180.0
1270,2280.0,-169.0
1271,2277.0,-158.0
1272,2142.0,-146.0
1273,1917.0,-133.0
1274,2035.0,-118.0
1275,2278.0,-102.0
1276,2275.0,-86.0
1277,2165.0,-72.0
1278,1903.0,-60.0
1279,2267.0,-45.0
1280,2274.0,-42.0
1281,2128.0,-47.0
1282,1870.0,-63.0
1283,1999.0,-88.0
1284,2275.0,-115.0
1285,2275.0,-139.0
1286,2176.0,-155.0
1287,1987.0,-162.0
1288,2135.0,-153.0
1289,2278.0,-124.0
1290,2280.0,-77.0
1291,2277.0,-25.0
1292,2280.0,21.0
1293,2278.0,59.0
1294,2279.0,91.0
1295,2274.0,119.0
1296,2280.0,142.0
1297,2231.0,164.0
1298,2183.0,187.0
1299,2273.0,220.0
1300,2272.0,263.0
1301,2255.0,313.0
1302,1989.0,365.0
1303,1991.0,413.0
1304,2271.0,456.0
1305,2278.0,490.0
1306,2189.0,511.0
1307,1918.0,513.0
1308,1945.0,495.0
1309,2259.0,461.0
1310,2276.0,414.0
1311,2151.0,358.0
1312,1791.0,297.0
1313,1738.0,235.0
1314,2103.0,179.0
1315,2278.0,136.0
1316,2184.0,105.0
1317,1871.0,84.0
1318,1872.0,74.0
1319,2212.0,77.0
1320,2275.0,94.0
1321,2259.0,115.0
1322,2000.0,129.0
1323,1958.0,132.0
1324,2244.0,128.0
1325,2282.0,120.0
1326,2257.0,111.0
1327,2010.0,102.0
1328,1945.0,103.0
1329,2247.0,125.0
1330,2272.0,174.0
1331,2271.0,242.0
1332,2043.0,314.0
1333,1947.0,380.0
1334,2226.0,433.0
1335,2280.0,473.0
1336,2266.0,492.0
1337,2023.0,489.0
1338,1928.0,465.0
1339,2205.0,431.0
1340,2277.0,398.0
1341,2276.0,369.0
1342,2088.0,344.0
1343,1939.0,321.0
1344,2198.0,303.0
1345,2275.0,294.0
1346,2265.0,289.0
1347,2034.0,282.0
1348,1915.0,271.0
1349,2191.0,257.0
1350,2277.0,245.0
1351,2272.0,236.0
1352,2084.0,228.0
1353,1949.0,220.0
1354,2167.0,217.0
1355,2270.0,220.0
1356,2276.0,226.0
1357,2015.0,228.0
1358,1844.0,221.0
1359,2052.0,208.0
1360,1759.0,164.0
1361,1987.0,160.0
1362,2269.0,165.0
1363,2251.0,174.0
1364,1917.0,177.0
1365,1717.0,168.0
1366,1956.0,148.0
1367,2270.0,124.0
1368,2280.0,96.0
1369,2075.0,64.0
1370,2277.0,153.0
1371,2280.0,207.0
1372,2271.0,264.0
1373,2272.0,318.0
1374,2277.0,363.0
1375,2271.0,397.0
1376,2277.0,418.0
1377,2281.0,421.0
1378,2271.0,404.0
1379,2279.0,367.0
1380,2284.0,315.0
1381,2281.0,255.0
1382,2281.0,195.0
1383,2280.0,140.0
1384,2276.0,94.0
1385,2279.0,57.0
1386,2280.0,33.0
1387,2276.0,18.0
1388,2279.0,10.0
1389,2276.0,5.0
1390,2276.0,0.0
1391,2277.0,-6.0
1392,2280.0,-14.0
1393,2275.0,-20.0
1394,2277.0,-26.0
1395,2267.0,-32.0
1396,2274.0,-48.0
1397,2273.0,-54.0
1398,2280.0,-60.0
1399,2288.0,-66.0
1400,2280.0,-72.0
1401,2273.0,-76.0
1402,2271.0,-80.0
1403,2275.0,-83.0
1404,2271.0,-86.0
1405,2273.0,-89.0
1406,2276.0,-93.0
1407,2277.0,-96.0
1408,2277.0,-98.0
1409,2173.0,-99.0
1410,2101.0,-98.0
1411,2277.0,-97.0
1412,2281.0,-97.0
1413,2188.0,-98.0
1414,1888.0,-101.0
1415,1853.0,-105.0
1416,2139.0,-107.0
1417,2264.0,-109.0
1418,2056.0,-111.0
1419,1719.0,-117.0
1420,1701.0,-127.0
1421,2007.0,-140.0
1422,2226.0,-156.0
1423,2032.0,-178.0
1424,1638.0,-211.0
1425,1573.0,-252.0
1426,1884.0,-295.0
1427,2111.0,-334.0
1428,1950.0,-370.0
1429,1607.0,-404.0
1430,1568.0,-433.0
1431,2162.0,-444.0
1432,2044.0,-425.0
1433,1720.0,-403.0
1434,1711.0,-381.0
1435,2149.0,-357.0
1436,2284.0,-328.0
1437,2276.0,-302.0
1438,2274.0,-285.0
1439,2277.0,-275.0
1440,2279.0,-261.0
1441,2278.0,-232.0
1442,2285.0,-187.0
1443,2277.0,-133.0
1444,2280.0,-72.0
1445,2283.0,0.0
1446,2277.0,85.0
1447,2279.0,185.0
1448,2277.0,292.0
1449,2282.0,400.0
1450,2275.0,504.0
1451,2278.0,596.0
1452,2279.0,63.0
1453,2275.0,41.0
1454,2283.0,37.0
1455,2284.0,41.0
1456,2284.0,43.0
1457,2283.0,39.0
1458,2285.0,30.0
1459,2279.0,19.0
1460,2284.0,7.0
1461,2288.0,-2.0
1462,2274.0,-9.0
1463,2279.0,-15.0
1464,2277.0,-20.0
1465,2280.0,-24.0
1466,2275.0,-28.0
1467,2279.0,-31.0
1468,2281.0,-34.0
1469,2277.0,-37.0
1470,2283.0,-40.0
1471,2275.0,-42.0
1472,2282.0,-45.0
1473,2276.0,-49.0
1474,2280.0,-53.0
1475,2277.0,-58.0
1476,2282.0,-63.0
1477,2279.0,-68.0
1478,2279.0,-73.0
1479,2280.0,-76.0
1480,2280.0,-78.0
1481,2279.0,-79.0
1482,2270.0,-78.0
1483,2276.0,-78.0
1484,2285.0,-77.0
1485,2278.0,-76.0
1486,2275.0,-76.0
1487,2280.0,-76.0
1488,2283.0,-77.0
1489,2280.0,-78.0
1490,2281.0,-78.0
1491,2281.0,-79.0
1492,1447.0,-66.0
1493,1023.0,-64.0
1494,1026.0,-60.0
1495,1319.0,-54.0
1496,1419.0,-54.0
1497,1112.0,-74.0
1498,734.0,-130.0
1499,721.0,-231.0
1500,1019.0,-375.0
1501,1168.0,-554.0
1502,904.0,-754.0
1503,553.0,-958.0
1504,515.0,-1137.0
1505,803.0,-1262.0
1506,299.0,-1270.0
1507,230.0,-1195.0
1508,498.0,-1101.0
1509,644.0,-1000.0
1510,374.0,-908.0
1511,-25.0,-834.0
1512,-18.0,-775.0
1513,39.0,-719.0
1514,-21.0,-445.0
1515,-25.0,-397.0
1516,-20.0,-88.0
1517,-20.0,46.0
1518,-27.0,178.0
1519,-20.0,299.0
1520,-25.0,402.0
1521,-15.0,484.0
1522,-20.0,545.0
1523,-24.0,589.0
1524,-22.0,620.0
1525,-22.0,647.0
1526,-20.0,672.0
1527,-18.0,697.0
1528,-21.0,721.0
1529,-22.0,743.0
1530,-21.0,764.0
1531,-23.0,783.0
1532,-22.0,799.0
1533,-20.0,813.0
1534,-25.0,824.0
1535,-22.0,832.0
1536,-20.0,838.0
1537,-17.0,840.0
1538,-16.0,841.0
1539,-20.0,838.0
1540,-18.0,834.0
1541,-27.0,829.0
1542,-26.0,823.0
1543,-17.0,816.0
1544,-16.0,807.0
1545,-22.0,798.0
1546,-24.0,787.0
1547,-22.0,777.0
1548,-22.0,765.0
1549,-16.0,753.0
1550,-24.0,740.0
1551,-24.0,726.0
1552,-20.0,712.0
1553,-25.0,696.0
1554,-25.0,679.0
1555,-24.0,662.0
1556,-23.0,644.0
1557,-22.0,627.0
1558,-25.0,610.0
1559,-16.0,592.0
1560,-22.0,575.0
1561,-22.0,557.0
1562,-26.0,499.0
1563,-26.0,478.0
1564,-20.0,458.0
1565,-16.0,438.0
1566,-20.0,418.0
1567,-23.0,399.0
1568,-22.0,380.0
1569,-25.0,362.0
1570,-29.0,345.0
1571,-27.0,327.0
1572,-23.0,308.0
1573,-20.0,290.0
1574,-24.0,270.0
1575,-14.0,214.0
1576,-19.0,196.0
1577,-25.0,179.0
1578,-20.0,162.0
1579,-20.0,146.0
1580,-23.0,128.0
1581,-21.0,110.0
1582,-20.0,93.0
1583,-22.0,75.0
1584,-25.0,59.0
1585,-25.0,45.0
1586,-14.0,32.0
1587,-25.0,20.0
1588,-23.0,8.0
1589,-24.0,-3.0
1590,-25.0,-16.0
1591,-18.0,-30.0
1592,-25.0,-46.0
1593,-24.0,-61.0
1594,-21.0,-77.0
1595,-24.0,-91.0
1596,-25.0,-104.0
1597,-25.0,-115.0
1598,-21.0,-126.0
1599,-20.0,-136.0
1600,-24.0,-146.0
1601,-23.0,-155.0
1602,-22.0,-164.0
1603,-22.0,-174.0
1604,-22.0,-183.0
1605,-24.0,-192.0
1606,-21.0,-200.0
1607,-22.0,-208.0
1608,-25.0,-216.0
1609,-25.0,-223.0
1610,-19.0,-229.0
1611,-25.0,-235.0
1612,-22.0,-240.0
1613,-23.0,-245.0
1614,-19.0,-250.0
1615,38.0,-254.0
1616,32.0,-258.0
1617,-23.0,-263.0
1618,-19.0,-267.0
1619,260.0,-271.0
1620,541.0,-275.0
1621,418.0,-278.0
1622,106.0,-282.0
1623,16.0,-285.0
1624,324.0,-286.0
1625,627.0,-286.0
1626,504.0,-284.0
1627,170.0,-282.0
1628,102.0,-274.0
1629,427.0,-251.0
1630,726.0,-206.0
1631,617.0,-141.0
1632,270.0,-65.0
1633,184.0,12.0
1634,485.0,82.0
1635,799.0,136.0
1636,736.0,162.0
1637,418.0,148.0
1638,301.0,101.0
1639,602.0,38.0
1640,919.0,-21.0
1641,881.0,-68.0
1642,570.0,-102.0
1643,468.0,-123.0
1644,768.0,-126.0
1645,1086.0,-113.0
1646,1047.0,-93.0
1647,728.0,-81.0
1648,589.0,-82.0
1649,875.0,-87.0
1650,1232.0,-88.0
1651,1197.0,-82.0
1652,872.0,-75.0
1653,709.0,-69.0
1654,937.0,-61.0
1655,1267.0,-46.0
1656,1258.0,-27.0
1657,941.0,-13.0
1658,785.0,-10.0
1659,1032.0,-13.0
1660,1389.0,-15.0
1661,1403.0,-17.0
1662,1091.0,-25.0
1663,910.0,-42.0
1664,1145.0,-64.0
1665,1499.0,-84.0
1666,1527.0,-103.0
1667,1212.0,-127.0
1668,979.0,-158.0
1669,1167.0,-190.0
1670,1500.0,-213.0
1671,1543.0,-223.0
1672,1224.0,-225.0
1673,1002.0,-224.0
1674,1167.0,-217.0
1675,1539.0,-200.0
1676,1304.0,-160.0
1677,1052.0,-158.0
1678,1207.0,-171.0
1679,1581.0,-190.0
1680,1678.0,-215.0
1681,1377.0,-248.0
1682,1119.0,-292.0
1683,1292.0,-337.0
1684,1689.0,-373.0
1685,1650.0,-333.0
1686,1778.0,-318.0
1687,1522.0,-298.0
1688,1216.0,-280.0
1689,1283.0,-264.0
1690,1650.0,-246.0
1691,1791.0,-227.0
1692,1550.0,-220.0
1693,1236.0,-233.0
1694,1279.0,-265.0
1695,1606.0,-305.0
1696,1767.0,-346.0
1697,1503.0,-385.0
1698,1155.0,-423.0
1699,1686.0,-461.0
1700,1483.0,-441.0
1701,1185.0,-418.0
1702,1290.0,-397.0
1703,1704.0,-376.0
1704,1988.0,-354.0
1705,1883.0,-339.0
1706,1653.0,-340.0
1707,1716.0,-356.0
1708,2048.0,-378.0
1709,2203.0,-399.0
1710,1959.0,-416.0
1711,1538.0,-431.0
1712,1451.0,-434.0
1713,1775.0,-412.0
1714,2047.0,-352.0
1715,1918.0,-256.0
1716,1582.0,-132.0
1717,1540.0,10.0
1718,1979.0,436.0
1719,1629.0,496.0
1720,1550.0,481.0
1721,1855.0,398.0
1722,2132.0,263.0
1723,1992.0,99.0
1724,1654.0,-69.0
1725,1590.0,-214.0
1726,1909.0,-305.0
1727,2173.0,-326.0
1728,2053.0,-286.0
1729,1712.0,-209.0
1730,1649.0,-122.0
1731,1946.0,-41.0
1732,2219.0,21.0
1733,2084.0,56.0
1734,1721.0,57.0
1735,1591.0,32.0
1736,1886.0,1.0
1737,2155.0,-19.0
1738,2052.0,-23.0
1739,1687.0,-16.0
1740,1533.0,-4.0
1741,1794.0,14.0
1742,2103.0,40.0
1743,2028.0,64.0
1744,1679.0,76.0
1745,1535.0,73.0
1746,1774.0,58.0
1747,2074.0,40.0
1748,2016.0,20.0
1749,1650.0,-6.0
1750,1455.0,-39.0
1751,1687.0,-70.0
1752,2016.0,-89.0
1753,1975.0,-96.0
1754,1642.0,-98.0
1755,1434.0,-98.0
1756,1659.0,-92.0
1757,1989.0,-75.0
1758,1981.0,-51.0
1759,1656.0,-32.0
1760,1459.0,-24.0
1761,1680.0,-24.0
1762,2044.0,-25.0
1763,2087.0,-26.0
1764,1764.0,-32.0
1765,1552.0,-43.0
1766,1751.0,-51.0
1767,2103.0,-48.0
1768,2135.0,-32.0
1769,1799.0,-12.0
1770,1536.0,7.0
1771,1658.0,27.0
1772,1983.0,55.0
1773,2027.0,91.0
1774,1711.0,126.0
1775,1461.0,157.0
1776,1629.0,185.0
1777,1980.0,217.0
1778,2039.0,250.0
1779,1746.0,275.0
1780,1504.0,281.0
1781,1655.0,269.0
1782,2013.0,245.0
1783,2100.0,212.0
1784,1806.0,168.0
1785,1510.0,115.0
1786,1621.0,64.0
1787,1957.0,28.0
1788,1988.0,15.0
1789,1218.0,39.0
1790,1270.0,69.0
1791,1640.0,110.0
1792,1774.0,158.0
1793,1500.0,202.0
1794,1201.0,230.0
1795,1291.0,243.0
1796,1641.0,244.0
1797,1790.0,235.0
1798,1501.0,207.0
1799,1183.0,153.0
1800,1254.0,77.0
1801,1618.0,-9.0
1802,1777.0,-94.0
1803,1548.0,-171.0
1804,1235.0,-231.0
1805,1296.0,-263.0
1806,1650.0,-253.0
1807,1823.0,-199.0
1808,1577.0,-117.0
1809,1245.0,-28.0
1810,1248.0,51.0
1811,1597.0,118.0
1812,1810.0,193.0
1813,1619.0,211.0
1814,1261.0,229.0
1815,1236.0,242.0
1816,1599.0,251.0
1817,1860.0,257.0
1818,1662.0,256.0
1819,1319.0,246.0
1820,1304.0,229.0
1821,1648.0,219.0
1822,1906.0,221.0
1823,1694.0,232.0
1824,1333.0,241.0
1825,1303.0,244.0
1826,1653.0,245.0
1827,1935.0,248.0
1828,1800.0,251.0
1829,1443.0,249.0
1830,1366.0,245.0
1831,1661.0,246.0
1832,1900.0,260.0
1833,1728.0,280.0
1834,1380.0,294.0
1835,1574.0,295.0
1836,1846.0,293.0
1837,1712.0,290.0
1838,1350.0,283.0
1839,1238.0,274.0
1840,1536.0,268.0
1841,1826.0,271.0
1842,1715.0,274.0
1843,1356.0,265.0
1844,1242.0,239.0
1845,1547.0,203.0
1846,1853.0,163.0
1847,1772.0,124.0
1848,1429.0,85.0
1849,1295.0,49.0
1850,1548.0,26.0
1851,1859.0,22.0
1852,1816.0,33.0
1853,1501.0,47.0
1854,1399.0,57.0
1855,1730.0,67.0
1856,2103.0,81.0
1857,2122.0,98.0
1858,2055.0,140.0
1859,1617.0,145.0
1860,1336.0,143.0
1861,1534.0,145.0
1862,1899.0,163.0
1863,1930.0,201.0
1864,1581.0,253.0
1865,1332.0,314.0
1866,1501.0,378.0
1867,1836.0,437.0
1868,1847.0,473.0
1869,1509.0,463.0
1870,1278.0,395.0
1871,1449.0,273.0
1872,1803.0,120.0
1873,1853.0,-42.0
1874,1528.0,-193.0
1875,1293.0,-314.0
1876,1463.0,-386.0
1877,1810.0,-398.0
1878,1845.0,-358.0
1879,1367.0,-171.0
1880,1708.0,-134.0
1881,1806.0,-115.0
1882,1519.0,-114.0
1883,1234.0,-129.0
1884,1340.0,-145.0
1885,1695.0,-148.0
1886,1795.0,-135.0
1887,1514.0,-117.0
1888,1230.0,-104.0
1889,1346.0,-101.0
1890,1683.0,-104.0
1891,1790.0,-112.0
1892,1530.0,-126.0
1893,1250.0,-149.0
1894,1339.0,-172.0
1895,1675.0,-185.0
1896,1808.0,-182.0
1897,1516.0,-169.0
1898,1215.0,-156.0
1899,1300.0,-143.0
1900,1636.0,-127.0
1901,1201.0,-82.0
1902,1266.0,-81.0
1903,1634.0,-79.0
1904,1804.0,-72.0
1905,1568.0,-66.0
1906,1249.0,-66.0
1907,1272.0,-72.0
1908,1591.0,-78.0
1909,1810.0,-81.0
1910,1601.0,-85.0
1911,1286.0,-95.0
1912,1304.0,-107.0
1913,1642.0,-112.0
1914,1815.0,-105.0
1915,1570.0,-90.0
1916,1214.0,-74.0
1917,1197.0,-60.0
1918,1540.0,-43.0
1919,1767.0,-23.0
1920,1579.0,-5.0
1921,1216.0,1.0
1922,1189.0,0.0
1923,1519.0,0.0
1924,1755.0,2.0
1925,1580.0,7.0
1926,1253.0,2.0
1927,1205.0,-11.0
1928,1528.0,-30.0
1929,1807.0,-47.0
1930,1685.0,-65.0
1931,1310.0,-87.0
1932,1211.0,-108.0
1933,1520.0,-119.0
1934,1793.0,-113.0
1935,1342.0,-74.0
1936,1246.0,-55.0
1937,1535.0,-36.0
1938,1813.0,-13.0
1939,1709.0,9.0
1940,1359.0,26.0
1941,1247.0,33.0
1942,1520.0,38.0
1943,1793.0,45.0
1944,1704.0,52.0
1945,1374.0,52.0
1946,1231.0,41.0
1947,1497.0,29.0
1948,1820.0,23.0
1949,1755.0,22.0
1950,1418.0,22.0
1951,1266.0,18.0
1952,1509.0,15.0
1953,1816.0,17.0
1954,1790.0,21.0
1955,1440.0,18.0
1956,1272.0,6.0
1957,1495.0,-6.0
1958,1844.0,-13.0
1959,1832.0,-11.0
1960,1505.0,-7.0
1961,1323.0,-4.0
1962,1515.0,0.0
1963,1842.0,12.0
1964,1860.0,28.0
1965,1534.0,37.0
1966,1299.0,36.0
1967,1507.0,29.0
1968,1858.0,23.0
1969,1888.0,22.0
1970,1555.0,21.0
1971,1335.0,17.0
1972,1556.0,14.0
1973,1909.0,20.0
1974,1943.0,31.0
1975,1645.0,39.0
1976,1424.0,37.0
1977,1603.0,28.0
1978,1966.0,19.0
1979,2000.0,14.0
1980,1658.0,6.0
1981,1395.0,-4.0
1982,1529.0,-12.0
1983,1833.0,-10.0
1984,1878.0,2.0
1985,1576.0,19.0
1986,1328.0,34.0
1987,1443.0,46.0
1988,1786.0,61.0
1989,1870.0,77.0
1990,1572.0,86.0
1991,1294.0,80.0
1992,1391.0,60.0
1993,1851.0,0.0
1994,1568.0,-40.0
1995,1251.0,-90.0
1996,1349.0,-140.0
1997,1698.0,-176.0
1998,1831.0,-194.0
1999,1607.0,-196.0
2000,1314.0,-190.0
2001,1395.0,-178.0
2002,1791.0,-157.0
2003,2004.0,-131.0
2004,1825.0,-111.0
2005,1582.0,-103.0
2006,1678.0,-107.0
2007,2027.0,-113.0
2008,2122.0,-115.0
2009,1813.0,-115.0
2010,1421.0,-115.0
2011,1375.0,-111.0
2012,1638.0,-94.0
2013,1809.0,-60.0
2014,1595.0,-13.0
2015,1210.0,289.0
2016,1189.0,255.0
2017,1544.0,178.0
2018,1761.0,69.0
2019,1570.0,-63.0
2020,1230.0,-202.0
2021,1196.0,-326.0
2022,1507.0,-407.0
2023,1736.0,-430.0
2024,1584.0,-402.0
2025,1213.0,-339.0
2026,1162.0,-261.0
2027,1150.0,-35.0
2028,1432.0,-36.0
2029,1729.0,-31.0
2030,1632.0,-23.0
2031,1268.0,-19.0
2032,1137.0,-19.0
2033,1428.0,-16.0
2034,1715.0,-6.0
2035,1636.0,9.0
2036,1279.0,23.0
2037,1136.0,31.0
2038,1381.0,38.0
2039,1703.0,48.0
2040,1666.0,58.0
2041,1327.0,60.0
2042,1665.0,42.0
2043,1322.0,43.0
2044,1120.0,41.0
2045,1329.0,39.0
2046,1648.0,43.0
2047,1624.0,52.0
2048,1283.0,59.0
2049,1086.0,61.0
2050,1225.0,42.0
2051,1003.0,25.0
2052,1175.0,10.0
2053,1500.0,3.0
2054,1531.0,4.0
2055,1206.0,6.0
2056,959.0,4.0
2057,1101.0,0.0
2058,1467.0,-3.0
2059,1556.0,-3.0
2060,1252.0,-5.0
2061,972.0,-14.0
2062,1108.0,-23.0
2063,1461.0,-24.0
2064,1557.0,-17.0
2065,1028.0,-4.0
2066,1164.0,-4.0
2067,1530.0,0.0
2068,1638.0,8.0
2069,1364.0,16.0
2070,1087.0,19.0
2071,1224.0,21.0
2072,1570.0,29.0
2073,1554.0,195.0
2074,1621.0,192.0
2075,2003.0,191.0
2076,2202.0,198.0
2077,2023.0,210.0
2078,1727.0,223.0
2079,1800.0,241.0
2080,2153.0,270.0
2081,2271.0,313.0
2082,2096.0,358.0
2083,1775.0,396.0
2084,1781.0,422.0
2085,2104.0,438.0
2086,2272.0,444.0
2087,2098.0,437.0
2088,1773.0,413.0
2089,1752.0,380.0
2090,2054.0,348.0
2091,2247.0,325.0
2092,2032.0,308.0
2093,1670.0,289.0
2094,1594.0,264.0
2095,1877.0,235.0
2096,2088.0,204.0
2097,1837.0,167.0
2098,1411.0,121.0
2099,1305.0,68.0
2100,1576.0,21.0
2101,1816.0,-13.0
2102,1655.0,-39.0
2103,1280.0,-65.0
2104,1119.0,-96.0
2105,1344.0,-129.0
2106,1575.0,-163.0
2107,1452.0,-204.0
2108,1105.0,-259.0
2109,1014.0,-326.0
2110,1454.0,-503.0
2111,1098.0,-542.0
2112,1033.0,-573.0
2113,1371.0,-590.0
2114,1703.0,-589.0
2115,1663.0,-577.0
2116,1367.0,-564.0
2117,1207.0,-553.0
2118,1375.0,-539.0
2119,1596.0,-515.0
2120,1428.0,-481.0
2121,1001.0,-443.0
2122,837.0,-403.0
2123,1086.0,-353.0
2124,1436.0,-290.0
2125,1399.0,-217.0
2126,1064.0,-142.0
2127,873.0,-74.0
2128,1072.0,-16.0
2129,1362.0,26.0
2130,1334.0,43.0
2131,979.0,20.0
2132,1337.0,-252.0
2133,1337.0,-347.0
2134,1002.0,-415.0
2135,800.0,-445.0
2136,984.0,-425.0
2137,1296.0,-358.0
2138,1307.0,-259.0
2139,988.0,-160.0
2140,777.0,-83.0
2141,968.0,-37.0
2142,1322.0,-18.0
2143,1347.0,-21.0
2144,1012.0,-37.0
2145,767.0,-59.0
2146,976.0,-70.0
2147,1339.0,-62.0
2148,1387.0,-36.0
2149,1059.0,-4.0
2150,826.0,20.0
2151,962.0,38.0
2152,1326.0,53.0
2153,1384.0,68.0
2154,1104.0,79.0
2155,842.0,85.0
2156,986.0,92.0
2157,1347.0,106.0
2158,1443.0,129.0
2159,1184.0,151.0
2160,916.0,165.0
2161,1024.0,173.0
2162,1380.0,182.0
2163,1499.0,191.0
2164,1245.0,197.0
2165,960.0,195.0
2166,1043.0,190.0
2167,1387.0,189.0
2168,1524.0,197.0
2169,1261.0,208.0
2170,970.0,217.0
2171,1061.0,225.0
2172,1415.0,238.0
2173,1563.0,256.0
2174,1302.0,272.0
2175,978.0,278.0
2176,1003.0,274.0
2177,1346.0,268.0
2178,1514.0,263.0
2179,1245.0,256.0
2180,920.0,241.0
2181,936.0,223.0
2182,1279.0,211.0
2183,1458.0,207.0
2184,1210.0,207.0
2185,877.0,203.0
2186,896.0,194.0
2187,1229.0,185.0
2188,1418.0,176.0
2189,1222.0,162.0
2190,914.0,137.0
2191,887.0,103.0
2192,1200.0,72.0
2193,1407.0,48.0
2194,1244.0,32.0
2195,904.0,16.0
2196,871.0,3.0
2197,1209.0,0.0
2198,1433.0,4.0
2199,1278.0,14.0
2200,943.0,21.0
2201,898.0,24.0
2202,1206.0,27.0
2203,1437.0,36.0
2204,1272.0,46.0
2205,924.0,49.0
2206,861.0,45.0
2207,1175.0,41.0
2208,1429.0,42.0
2209,1303.0,46.0
2210,961.0,48.0
2211,870.0,46.0
2212,1159.0,47.0
2213,1429.0,55.0
2214,1325.0,63.0
2215,989.0,63.0
2216,879.0,53.0
2217,1154.0,39.0
2218,1483.0,29.0
2219,1414.0,21.0
2220,1058.0,11.0
2221,924.0,1.0
2222,1180.0,-2.0
2223,1497.0,3.0
2224,1424.0,16.0
2225,1074.0,25.0
2226,940.0,27.0
2227,1202.0,27.0
2228,1527.0,31.0
2229,1465.0,39.0
2230,1109.0,45.0
2231,990.0,47.0
2232,1262.0,50.0
2233,1590.0,59.0
2234,1543.0,70.0
2235,1206.0,73.0
2236,1020.0,65.0
2237,1222.0,52.0
2238,1523.0,42.0
2239,1479.0,35.0
2240,1144.0,29.0
2241,962.0,21.0
2242,1180.0,18.0
2243,1531.0,27.0
2244,1527.0,44.0
2245,1207.0,60.0
2246,975.0,69.0
2247,1162.0,70.0
2248,1494.0,67.0
2249,1517.0,57.0
2250,1208.0,33.0
2251,1003.0,-4.0
2252,1208.0,-46.0
2253,1561.0,-79.0
2254,1600.0,-99.0
2255,1276.0,-107.0
2256,1055.0,-107.0
2257,1249.0,-98.0
2258,1614.0,-78.0
2259,1727.0,-54.0
2260,1495.0,-38.0
2261,1312.0,-35.0
2262,1503.0,-41.0
2263,1898.0,-45.0
2264,1991.0,-44.0
2265,1632.0,-40.0
2266,1274.0,-36.0
2267,1331.0,-29.0
2268,1591.0,-14.0
2269,1660.0,7.0
2270,1391.0,31.0
2271,1135.0,54.0
2272,1251.0,81.0
2273,1169.0,247.0
2274,1492.0,212.0
2275,1638.0,140.0
2276,1401.0,33.0
2277,1099.0,-97.0
2278,1204.0,-228.0
2279,1552.0,-330.0
2280,1694.0,-382.0
2281,1447.0,-386.0
2282,1129.0,-350.0
2283,1167.0,-290.0
2284,1531.0,-217.0
2285,1703.0,-149.0
2286,1475.0,-102.0
2287,1206.0,-96.0
2288,1548.0,-113.0
2289,1730.0,-124.0
2290,1505.0,-126.0
2291,1181.0,-121.0
2292,1200.0,-111.0
2293,1529.0,-95.0
2294,1728.0,-76.0
2295,1542.0,-63.0
2296,1210.0,-64.0
2297,1187.0,-74.0
2298,1522.0,-83.0
2299,1740.0,-83.0
2300,1550.0,-77.0
2301,1208.0,-72.0
2302,1190.0,-69.0
2303,1525.0,-64.0
2304,1772.0,-57.0
2305,1591.0,-51.0
2306,1264.0,-53.0
2307,1203.0,-62.0
2308,1516.0,-69.0
2309,1771.0,-68.0
2310,1616.0,-63.0
2311,1272.0,-61.0
2312,1217.0,-62.0
2313,1503.0,-62.0
2314,1776.0,-55.0
2315,1675.0,-45.0
2316,1336.0,-39.0
2317,1224.0,-37.0
2318,1500.0,-34.0
2319,1792.0,-25.0
2320,1682.0,-15.0
2321,1309.0,-12.0
2322,1403.0,-24.0
2323,1671.0,-25.0
2324,1574.0,-23.0
2325,1225.0,-22.0
2326,1069.0,-22.0
2327,1297.0,-20.0
2328,1585.0,-10.0
2329,1524.0,1.0
2330,1199.0,5.0
2331,1058.0,-1.0
2332,1315.0,-17.0
2333,1633.0,-35.0
2334,1587.0,-57.0
2335,1244.0,-85.0
2336,1079.0,-119.0
2337,1316.0,-150.0
2338,1628.0,-168.0
2339,1594.0,-174.0
2340,1251.0,-172.0
2341,1064.0,-165.0
2342,1267.0,-150.0
2343,1583.0,-121.0
2344,1061.0,-21.0
2345,1274.0,0.0
2346,1601.0,18.0
2347,1604.0,32.0
2348,1271.0,34.0
2349,1061.0,23.0
2350,1248.0,6.0
2351,1584.0,-8.0
2352,1628.0,-18.0
2353,1311.0,-26.0
2354,1049.0,-34.0
2355,1201.0,-36.0
2356,1543.0,-28.0
2357,1600.0,-9.0
2358,1275.0,8.0
2359,1035.0,20.0
2360,1221.0,28.0
2361,1581.0,36.0
2362,1644.0,45.0
2363,1349.0,50.0
2364,1088.0,46.0
2365,1211.0,37.0
2366,1546.0,32.0
2367,1661.0,31.0
2368,1380.0,29.0
2369,1100.0,21.0
2370,1213.0,13.0
2371,1596.0,13.0
2372,1713.0,23.0
2373,1448.0,39.0
2374,1176.0,53.0
2375,1263.0,67.0
2376,1598.0,83.0
2377,1693.0,101.0
2378,1399.0,112.0
2379,1069.0,110.0
2380,1127.0,99.0
2381,1496.0,90.0
2382,1651.0,88.0
2383,1408.0,91.0
2384,1079.0,96.0
2385,1143.0,103.0
2386,1497.0,117.0
2387,1677.0,133.0
2388,1455.0,141.0
2389,1129.0,132.0
2390,1182.0,105.0
2391,1518.0,70.0
2392,1722.0,36.0
2393,1495.0,4.0
2394,1166.0,-23.0
2395,1201.0,-41.0
2396,1556.0,-40.0
2397,1791.0,-18.0
2398,1632.0,14.0
2399,1368.0,47.0
2400,1422.0,73.0
2401,1810.0,95.0
2402,2078.0,114.0
2403,1924.0,124.0
2404,1558.0,121.0
2405,1431.0,108.0
2406,1667.0,97.0
2407,1818.0,94.0
2408,1549.0,99.0
2409,1184.0,110.0
2410,1183.0,128.0
2411,1534.0,162.0
2412,1800.0,215.0
2413,1621.0,279.0
2414,1256.0,337.0
2415,1172.0,377.0
2416,1455.0,390.0
2417,1712.0,370.0
2418,1583.0,307.0
2419,1245.0,198.0
2420,1144.0,58.0
2421,1448.0,-84.0
2422,1730.0,-201.0
2423,1624.0,-274.0
2424,1444.0,-215.0
2425,1759.0,-128.0
2426,1677.0,-42.0
2427,1336.0,16.0
2428,1194.0,38.0
2429,1456.0,29.0
2430,1749.0,4.0
2431,1689.0,-26.0
2432,1328.0,-56.0
2433,1179.0,-78.0
2434,1441.0,-83.0
2435,1764.0,-69.0
2436,1715.0,-42.0
2437,1371.0,-18.0
2438,1194.0,-4.0
2439,1405.0,0.0
2440,1752.0,3.0
2441,1742.0,4.0
2442,1430.0,0.0
2443,1252.0,-13.0
2444,1453.0,-27.0
2445,1763.0,-33.0
2446,1775.0,-31.0
2447,1436.0,-29.0
2448,1231.0,-30.0
2449,1423.0,-30.0
2450,1779.0,-24.0
2451,1819.0,-13.0
2452,1516.0,-3.0
2453,1302.0,0.0
2454,1485.0,1.0
2455,1851.0,8.0
2456,1902.0,19.0
2457,1594.0,26.0
2458,1381.0,25.0
2459,1554.0,18.0
2460,1877.0,13.0
2461,1942.0,11.0
2462,1627.0,8.0
2463,1351.0,3.0
2464,1498.0,2.0
2465,1795.0,12.0
2466,1863.0,33.0
2467,1556.0,57.0
2468,1266.0,75.0
2469,1382.0,89.0
2470,1717.0,100.0
2471,1793.0,108.0
2472,1485.0,107.0
2473,1214.0,92.0
2474,1302.0,68.0
2475,1650.0,41.0
2476,1761.0,16.0
2477,1480.0,-11.0
2478,1177.0,-46.0
2479,1252.0,-81.0
2480,1601.0,-109.0
2481,1729.0,-127.0
2482,1461.0,-138.0
2483,1142.0,-147.0
2484,1188.0,-155.0
2485,1526.0,-153.0
2486,1676.0,-143.0
2487,1409.0,-131.0
2488,1095.0,-124.0
2489,1161.0,-122.0
2490,1497.0,-118.0
2491,1668.0,-109.0
2492,1396.0,-102.0
2493,1423.0,-112.0
2494,1597.0,-112.0
2495,1365.0,-113.0
2496,1037.0,-119.0
2497,1036.0,-127.0
2498,1370.0,-129.0
2499,1562.0,-122.0
2500,1331.0,-109.0
2501,1000.0,-99.0
2502,989.0,-93.0
2503,1302.0,-85.0
2504,1526.0,-75.0
2505,1341.0,-68.0
2506,1007.0,-70.0
2507,966.0,-80.0
2508,1304.0,-89.0
2509,1527.0,-91.0
2510,1372.0,-88.0
2511,1031.0,-87.0
2512,988.0,-87.0
2513,1302.0,-82.0
2514,1543.0,-71.0
2515,1397.0,-56.0
2516,1049.0,-46.0
2517,986.0,16.0
2518,866.0,26.0
2519,1114.0,37.0
2520,1389.0,52.0
2521,1273.0,68.0
2522,939.0,76.0
2523,814.0,77.0
2524,1103.0,76.0
2525,1372.0,77.0
2526,1275.0,77.0
2527,915.0,69.0
2528,798.0,51.0
2529,1095.0,28.0
2530,1386.0,7.0
2531,1285.0,-11.0
2532,925.0,-31.0
2533,786.0,-49.0
2534,1053.0,-59.0
2535,1376.0,-52.0
2536,1330.0,-32.0
2537,1028.0,-9.0
2538,922.0,12.0
2539,1210.0,33.0
2540,1588.0,57.0
2541,1591.0,77.0
2542,1305.0,87.0
2543,1111.0,86.0
2544,1263.0,79.0
2545,1538.0,76.0
2546,1450.0,79.0
2547,1017.0,83.0
2548,808.0,91.0
2549,1019.0,109.0
2550,1385.0,145.0
2551,1411.0,199.0
2552,1064.0,259.0
2553,810.0,317.0
2554,975.0,366.0
2555,1300.0,400.0
2556,1328.0,407.0
2557,1000.0,374.0
2558,765.0,298.0
2559,970.0,192.0
2560,1295.0,79.0
2561,1340.0,-20.0
2562,1026.0,-95.0
2563,791.0,-139.0
2564,965.0,-144.0
2565,1324.0,-110.0
2566,1360.0,-53.0
2567,1043.0,6.0
2568,804.0,47.0
2569,975.0,67.0
2570,1331.0,70.0
2571,1390.0,62.0
2572,1095.0,46.0
2573,839.0,26.0
2574,950.0,12.0
2575,1307.0,13.0
2576,1420.0,29.0
2577,1151.0,47.0
2578,861.0,60.0
2579,966.0,65.0
2580,1303.0,68.0
2581,1434.0,73.0
2582,1180.0,74.0
2583,878.0,69.0
2584,954.0,63.0
2585,1299.0,62.0
2586,1431.0,68.0
2587,1181.0,73.0
2588,891.0,72.0
2589,952.0,68.0
2590,1295.0,67.0
2591,1447.0,72.0
2592,1217.0,76.0
2593,901.0,75.0
2594,961.0,68.0
2595,1316.0,64.0
2596,1489.0,63.0
2597,1258.0,62.0
2598,960.0,55.0
2599,1015.0,43.0
2600,1370.0,35.0
2601,1535.0,35.0
2602,1305.0,37.0
2603,1002.0,37.0
2604,1014.0,33.0
2605,1315.0,33.0
2606,1498.0,40.0
2607,1271.0,48.0
2608,920.0,52.0
2609,889.0,52.0
2610,1189.0,55.0
2611,1410.0,65.0
2612,1208.0,75.0
2613,869.0,78.0
2614,857.0,74.0
2615,1180.0,67.0
2616,1391.0,59.0
2617,1200.0,46.0
2618,846.0,21.0
2619,795.0,-13.0
2620,1098.0,-50.0
2621,1353.0,-80.0
2622,1202.0,-106.0
2623,863.0,-130.0
2624,804.0,-148.0
2625,1124.0,-155.0
2626,1369.0,-146.0
2627,1229.0,-127.0
2628,888.0,-110.0
2629,804.0,-99.0
2630,1109.0,-92.0
2631,1370.0,-85.0
2632,1266.0,-83.0
2633,935.0,-88.0
2634,1088.0,-105.0
2635,1374.0,-100.0
2636,1277.0,-86.0
2637,944.0,-72.0
2638,828.0,-60.0
2639,1102.0,-50.0
2640,1410.0,-38.0
2641,1324.0,-27.0
2642,945.0,-23.0
2643,840.0,-28.0
2644,1103.0,-34.0
2645,1206.0,10.0
2646,1028.0,14.0
2647,1226.0,19.0
2648,1548.0,32.0
2649,1541.0,50.0
2650,1184.0,65.0
2651,947.0,73.0
2652,1110.0,77.0
2653,1469.0,82.0
2654,1520.0,89.0
2655,1187.0,90.0
2656,935.0,85.0
2657,1107.0,77.0
2658,1471.0,73.0
2659,1530.0,72.0
2660,1224.0,64.0
2661,984.0,45.0
2662,1140.0,17.0
2663,1480.0,-10.0
2664,1556.0,-36.0
2665,1261.0,-61.0
2666,1025.0,-85.0
2667,1159.0,-102.0
2668,1522.0,-104.0
2669,1595.0,-90.0
2670,1352.0,-69.0
2671,1143.0,-51.0
2672,1325.0,-35.0
2673,1751.0,-19.0
2674,1925.0,-4.0
2675,1695.0,4.0
2676,1427.0,2.0
2677,1466.0,-6.0
2678,1767.0,-11.0
2679,1835.0,-11.0
2680,1501.0,-8.0
2681,1163.0,-5.0
2682,1227.0,2.0
2683,1595.0,25.0
2684,1738.0,67.0
2685,1476.0,120.0
2686,1159.0,176.0
2687,1235.0,226.0
2688,1575.0,265.0
2689,1728.0,282.0
2690,1476.0,262.0
2691,1160.0,198.0
2692,1205.0,97.0
2693,1555.0,-20.0
2694,1740.0,-133.0
2695,1228.0,-319.0
2696,1583.0,-302.0
2697,1758.0,-250.0
2698,1545.0,-181.0
2699,1241.0,-119.0
2700,1258.0,-75.0
2701,1616.0,-49.0
2702,1816.0,-39.0
2703,1636.0,-43.0
2704,1295.0,-59.0
2705,1288.0,-80.0
2706,1616.0,-91.0
2707,1848.0,-89.0
2708,1664.0,-76.0
2709,1327.0,-64.0
2710,1315.0,-54.0
2711,1653.0,-42.0
2712,1883.0,-26.0
2713,1708.0,-12.0
2714,1352.0,-4.0
2715,1303.0,-4.0
2716,1623.0,-4.0
2717,1878.0,-1.0
2718,1771.0,1.0
2719,1449.0,-2.0
2720,1381.0,-12.0
2721,1661.0,-20.0
2722,1908.0,-21.0
2723,1777.0,-17.0
2724,1423.0,-17.0
2725,1373.0,-22.0
2726,1677.0,-26.0
2727,1935.0,-25.0
2728,1805.0,-22.0
2729,1464.0,-22.0
2730,1364.0,-25.0
2731,1647.0,-23.0
2732,1945.0,-14.0
2733,1864.0,-1.0
2734,1507.0,5.0
2735,1364.0,3.0
2736,1594.0,-3.0
2737,1869.0,-8.0
2738,1787.0,-14.0
2739,1445.0,-23.0
2740,1836.0,-44.0
2741,1758.0,-36.0
2742,1438.0,-28.0
2743,1281.0,-26.0
2744,1526.0,-28.0
2745,1834.0,-30.0
2746,1809.0,-34.0
2747,1479.0,-48.0
2748,1280.0,-72.0
2749,1498.0,-97.0
2750,1807.0,-114.0
2751,1787.0,-123.0
2752,1766.0,-111.0
2753,1752.0,-89.0
2754,1414.0,-67.0
2755,1194.0,-53.0
2756,1382.0,-45.0
2757,1705.0,-37.0
2758,1730.0,-31.0
2759,1366.0,-31.0
2760,1109.0,-41.0
2761,1290.0,-55.0
2762,1618.0,-64.0
2763,1670.0,-68.0
2764,1344.0,-73.0
2765,1592.0,-93.0
2766,1639.0,-90.0
2767,1339.0,-88.0
2768,1064.0,-92.0
2769,1203.0,-99.0
2770,1544.0,-102.0
2771,1628.0,-100.0
2772,1344.0,-98.0
2773,1572.0,-6.0
2774,1715.0,9.0
2775,1449.0,29.0
2776,1101.0,46.0
2777,1133.0,60.0
2778,1447.0,75.0
2779,1605.0,92.0
2780,1361.0,105.0
2781,1054.0,107.0
2782,1096.0,103.0
2783,1432.0,100.0
2784,1605.0,103.0
2785,1390.0,106.0
2786,1078.0,104.0
2787,1103.0,94.0
2788,1442.0,84.0
2789,1639.0,73.0
2790,1446.0,57.0
2791,1131.0,34.0
2792,1111.0,7.0
2793,1426.0,-9.0
2794,1635.0,-11.0
2795,1435.0,-1.0
2796,1108.0,15.0
2797,1129.0,35.0
2798,1538.0,61.0
2799,1823.0,92.0
2800,1708.0,119.0
2801,1404.0,135.0
2802,1410.0,139.0
2803,1707.0,138.0
2804,1888.0,136.0
2805,1653.0,132.0
2806,1253.0,120.0
2807,1124.0,106.0
2808,1378.0,99.0
2809,1654.0,109.0
2810,1528.0,136.0
2811,1181.0,177.0
2812,1087.0,228.0
2813,1349.0,288.0
2814,1616.0,349.0
2815,1496.0,393.0
2816,1115.0,400.0
2817,1015.0,361.0
2818,1287.0,282.0
2819,1577.0,179.0
2820,1486.0,65.0
2821,1154.0,-44.0
2822,1036.0,-131.0
2823,1305.0,-179.0
2824,1591.0,-180.0
2825,1523.0,-142.0
2826,1189.0,-86.0
2827,1015.0,-33.0
2828,1281.0,9.0
2829,1589.0,38.0
2830,1539.0,49.0
2831,1198.0,41.0
2832,1057.0,20.0
2833,1310.0,0.0
2834,1607.0,-7.0
2835,1557.0,0.0
2836,1232.0,12.0
2837,1052.0,23.0
2838,1288.0,33.0
2839,1631.0,42.0
2840,1597.0,49.0
2841,1259.0,47.0
2842,1111.0,38.0
2843,1320.0,29.0
2844,1621.0,29.0
2845,1598.0,37.0
2846,1274.0,45.0
2847,1068.0,49.0
2848,1260.0,51.0
2849,1584.0,56.0
2850,1585.0,62.0
2851,1252.0,64.0
2852,1013.0,61.0
2853,1214.0,57.0
2854,1562.0,59.0
2855,1583.0,66.0
2856,1259.0,69.0
2857,1028.0,64.0
2858,1198.0,54.0
2859,1515.0,43.0
2860,1580.0,34.0
2861,1278.0,20.0
2862,1022.0,0.0
2863,1142.0,-18.0
2864,1457.0,-28.0
2865,1516.0,-28.0
2866,1207.0,-24.0
2867,891.0,-23.0
2868,1003.0,-21.0
2869,1339.0,-14.0
2870,1447.0,-4.0
2871,1131.0,2.0
2872,858.0,1.0
2873,972.0,-5.0
2874,1324.0,-11.0
2875,1425.0,-16.0
2876,1126.0,-26.0
2877,838.0,-45.0
2878,961.0,-72.0
2879,1317.0,-97.0
2880,1419.0,-116.0
2881,850.0,-147.0
2882,942.0,-157.0
2883,1272.0,-154.0
2884,1433.0,-136.0
2885,1165.0,-113.0
2886,841.0,-92.0
2887,888.0,-76.0
2888,1242.0,-59.0
2889,1405.0,-41.0
2890,1167.0,-29.0
2891,851.0,-25.0
2892,877.0,-28.0
2893,879.0,-16.0
2894,1188.0,-17.0
2895,1366.0,-14.0
2896,1147.0,-10.0
2897,838.0,-11.0
2898,842.0,-15.0
2899,1139.0,-16.0
2900,1346.0,-9.0
2901,1190.0,0.0
2902,851.0,5.0
2903,809.0,6.0
2904,1097.0,8.0
2905,1320.0,14.0
2906,1168.0,21.0
2907,789.0,13.0
2908,1094.0,6.0
2909,1334.0,4.0
2910,1178.0,6.0
2911,832.0,5.0
2912,776.0,3.0
2913,1058.0,3.0
2914,1319.0,10.0
2915,1197.0,17.0
2916,851.0,19.0
2917,718.0,15.0
2918,937.0,11.0
2919,1156.0,12.0
2920,985.0,17.0
2921,579.0,19.0
2922,433.0,19.0
2923,680.0,20.0
2924,971.0,28.0
2925,872.0,38.0
2926,535.0,42.0
2927,430.0,38.0
2928,711.0,29.0
2929,1024.0,16.0
2930,949.0,-2.0
2931,596.0,-37.0
2932,456.0,-88.0
2933,672.0,-145.0
2934,968.0,-196.0
2935,884.0,-235.0
2936,475.0,-260.0
2937,263.0,-267.0
2938,498.0,-246.0
2939,891.0,-195.0
2940,976.0,-124.0
2941,766.0,-48.0
2942,681.0,16.0
2943,960.0,66.0
2944,1346.0,99.0
2945,1391.0,110.0
2946,1092.0,94.0
2947,813.0,52.0
2948,959.0,-1.0
2949,1240.0,-49.0
2950,1152.0,-78.0
2951,800.0,-80.0
2952,602.0,-51.0
2953,799.0,16.0
2954,1148.0,125.0
2955,1180.0,260.0
2956,856.0,395.0
2957,608.0,502.0
2958,761.0,563.0
2959,1120.0,569.0
2960,1167.0,515.0
2961,857.0,403.0
2962,605.0,249.0
2963,783.0,84.0
2964,1125.0,-58.0
2965,1175.0,-156.0
2966,897.0,-204.0
2967,669.0,-206.0
2968,815.0,-170.0
2969,1168.0,-108.0
2970,1252.0,-38.0
2971,978.0,17.0
2972,718.0,47.0
2973,839.0,51.0
2974,1176.0,42.0
2975,1282.0,29.0
2976,1407.0,25.0
2977,1169.0,24.0
2978,1194.0,20.0
2979,1382.0,29.0
2980,1159.0,38.0
2981,848.0,40.0
2982,855.0,36.0
2983,1206.0,32.0
2984,1402.0,30.0
2985,1195.0,27.0
2986,871.0,17.0
2987,880.0,1.0
2988,1196.0,-12.0
2989,1391.0,-23.0
2990,1212.0,-33.0
2991,869.0,-47.0
2992,859.0,-64.0
2993,1167.0,-76.0
2994,1364.0,-79.0
2995,1159.0,-75.0
2996,830.0,-72.0
2997,778.0,-70.0
2998,1398.0,-136.0
2999,1263.0,-137.0
3000,922.0,-138.0
3001,804.0,-138.0
3002,1092.0,-132.0
3003,1369.0,-117.0
3004,1302.0,-97.0
3005,965.0,-81.0
3006,855.0,-72.0
3007,1137.0,-64.0
3008,1408.0,-52.0
3009,1336.0,-40.0
3010,994.0,-34.0
3011,868.0,-36.0
3012,1118.0,-41.0
3013,1431.0,-42.0
3014,1360.0,-42.0
3015,1005.0,-45.0
3016,858.0,-52.0
3017,1109.0,-55.0
3018,1419.0,-50.0
3019,1374.0,-37.0
3020,1050.0,-25.0
3021,875.0,-19.0
3022,1079.0,-16.0
3023,1412.0,-13.0
3024,1415.0,-10.0
3025,1075.0,-14.0
3026,856.0,-26.0
3027,1080.0,-40.0
3028,1402.0,-47.0
3029,1425.0,-47.0
3030,1119.0,-46.0
3031,934.0,-49.0
3032,1141.0,-51.0
3033,1460.0,-47.0
3034,983.0,11.0
3035,1079.0,11.0
3036,1385.0,12.0
3037,1463.0,15.0
3038,1157.0,16.0
3039,904.0,13.0
3040,1013.0,9.0
3041,1372.0,11.0
3042,1480.0,18.0
3043,1189.0,22.0
3044,906.0,16.0
3045,990.0,1.0
3046,1343.0,-15.0
3047,1461.0,-33.0
3048,1198.0,-55.0
3049,908.0,-83.0
3050,983.0,-109.0
3051,1325.0,-125.0
3052,1484.0,-126.0
3053,1260.0,-118.0
3054,971.0,-107.0
3055,1059.0,-94.0
3056,1475.0,-77.0
3057,1136.0,107.0
3058,1109.0,162.0
3059,1387.0,220.0
3060,1608.0,273.0
3061,1424.0,305.0
3062,1088.0,299.0
3063,1047.0,247.0
3064,1350.0,160.0
3065,1609.0,52.0
3066,1482.0,-60.0
3067,1111.0,-162.0
3068,1101.0,-232.0
3069,1395.0,-255.0
3070,1667.0,-226.0
3071,1176.0,-86.0
3072,1112.0,-21.0
3073,1428.0,24.0
3074,1691.0,47.0
3075,1583.0,45.0
3076,1235.0,21.0
3077,1152.0,-12.0
3078,1442.0,-38.0
3079,1729.0,-44.0
3080,1628.0,-32.0
3081,1290.0,-12.0
3082,1184.0,6.0
3083,1456.0,23.0
3084,1750.0,38.0
3085,1691.0,48.0
3086,1352.0,48.0
3087,1192.0,38.0
3088,1438.0,29.0
3089,1765.0,28.0
3090,1708.0,33.0
3091,1356.0,36.0
3092,1232.0,35.0
3093,1488.0,34.0
3094,1780.0,38.0
3095,1755.0,44.0
3096,1436.0,46.0
3097,1247.0,41.0
3098,1465.0,35.0
3099,1799.0,33.0
3100,1793.0,33.0
3101,1474.0,30.0
3102,1310.0,21.0
3103,1520.0,13.0
3104,1859.0,12.0
3105,1882.0,18.0
3106,1561.0,24.0
3107,1341.0,26.0
3108,1506.0,26.0
3109,1812.0,30.0
3110,1839.0,35.0
3111,1495.0,35.0
3112,1261.0,29.0
3113,1408.0,23.0
3114,1728.0,23.0
3115,1770.0,33.0
3116,1455.0,43.0
3117,1213.0,50.0
3118,1365.0,52.0
3119,1719.0,54.0
3120,1763.0,51.0
3121,1473.0,37.0
3122,1215.0,9.0
3123,1347.0,-26.0
3124,1670.0,-60.0
3125,1733.0,-86.0
3126,1449.0,-106.0
3127,1185.0,-123.0
3128,1320.0,-131.0
3129,1666.0,-127.0
3130,1800.0,-110.0
3131,1515.0,-90.0
3132,1210.0,-74.0
3133,1312.0,-64.0
3134,1661.0,-54.0
3135,1778.0,-45.0
3136,1508.0,-42.0
3137,1232.0,-50.0
3138,1291.0,-63.0
3139,1605.0,-70.0
3140,1762.0,-68.0
3141,1278.0,-43.0
3142,1594.0,-28.0
3143,1751.0,-11.0
3144,1509.0,1.0
3145,1208.0,3.0
3146,1250.0,-5.0
3147,1582.0,-15.0
3148,1746.0,-21.0
3149,1514.0,-25.0
3150,1214.0,-32.0
3151,1229.0,-37.0
3152,1541.0,-35.0
3153,1728.0,-26.0
3154,1533.0,-16.0
3155,1200.0,-12.0
3156,1166.0,-14.0
3157,1515.0,-17.0
3158,1719.0,-16.0
3159,1524.0,-13.0
3160,1339.0,-23.0
3161,1572.0,-24.0
3162,1444.0,-21.0
3163,1096.0,-18.0
3164,1004.0,-14.0
3165,1293.0,-4.0
3166,1573.0,15.0
3167,1466.0,37.0
3168,1090.0,51.0
3169,993.0,50.0
3170,1288.0,40.0
3171,1562.0,23.0
3172,1438.0,1.0
3173,1092.0,-27.0
3174,984.0,-57.0
3175,1503.0,-81.0
3176,1424.0,-68.0
3177,1096.0,-48.0
3178,982.0,-26.0
3179,1303.0,-3.0
3180,1647.0,20.0
3181,1608.0,40.0
3182,1324.0,48.0
3183,1220.0,44.0
3184,1518.0,35.0
3185,1789.0,28.0
3186,1668.0,24.0
3187,1465.0,56.0
3188,1125.0,94.0
3189,962.0,137.0
3190,1172.0,186.0
3191,1465.0,239.0
3192,1467.0,285.0
3193,1133.0,307.0
3194,920.0,292.0
3195,1128.0,243.0
3196,1483.0,169.0
3197,1519.0,79.0
3198,1210.0,-15.0
3199,1024.0,-102.0
3200,1212.0,-161.0
3201,1561.0,-179.0
3202,1634.0,-157.0
3203,1334.0,-111.0
3204,1089.0,-57.0
3205,1245.0,-7.0
3206,1592.0,35.0
3207,1654.0,65.0
3208,1366.0,76.0
3209,1118.0,71.0
3210,1719.0,97.0
3211,1441.0,89.0
3212,1144.0,79.0
3213,1223.0,70.0
3214,1570.0,69.0
3215,1675.0,74.0
3216,1413.0,79.0
3217,1117.0,79.0
3218,1193.0,73.0
3219,1529.0,69.0
3220,1680.0,69.0
3221,1424.0,67.0
3222,1088.0,59.0
3223,1139.0,47.0
3224,1504.0,37.0
3225,1689.0,31.0
3226,1455.0,24.0
3227,1156.0,10.0
3228,1190.0,-7.0
3229,1515.0,-20.0
3230,1669.0,-25.0
3231,1417.0,-28.0
3232,1084.0,-33.0
3233,1516.0,-53.0
3234,1321.0,-73.0
3235,969.0,-99.0
3236,937.0,-124.0
3237,1263.0,-141.0
3238,1487.0,-144.0
3239,1323.0,-139.0
3240,967.0,-133.0
3241,901.0,-130.0
3242,1194.0,-124.0
3243,1456.0,-115.0
3244,1292.0,-107.0
3245,926.0,-104.0
3246,849.0,-107.0
3247,1150.0,-108.0
3248,1428.0,-101.0
3249,1286.0,-90.0
3250,914.0,-83.0
3251,809.0,-81.0
3252,1093.0,-79.0
3253,1389.0,-74.0
3254,1270.0,-68.0
3255,924.0,-69.0
3256,825.0,-76.0
3257,1123.0,-82.0
3258,1427.0,-82.0
3259,1030.0,-72.0
3260,914.0,-71.0
3261,1173.0,-69.0
3262,1471.0,-62.0
3263,1399.0,-52.0
3264,1064.0,-46.0
3265,928.0,-45.0
3266,1174.0,-42.0
3267,1491.0,-30.0
3268,1469.0,-9.0
3269,1137.0,12.0
3270,953.0,33.0
3271,1179.0,55.0
3272,1502.0,79.0
3273,1498.0,102.0
3274,1184.0,115.0
3275,1007.0,114.0
3276,1207.0,106.0
3277,1527.0,98.0
3278,1523.0,95.0
3279,1203.0,91.0
3280,1006.0,85.0
3281,1204.0,83.0
3282,1515.0,87.0
3283,1510.0,97.0
3284,1178.0,105.0
3285,925.0,105.0
3286,1072.0,102.0
3287,1400.0,101.0
3288,1433.0,102.0
3289,1112.0,101.0
3290,869.0,93.0
3291,1026.0,84.0
3292,1360.0,77.0
3293,1410.0,73.0
3294,1119.0,65.0
3295,860.0,47.0
3296,1003.0,24.0
3297,1341.0,1.0
3298,1439.0,-19.0
3299,1143.0,-40.0
3300,850.0,-64.0
3301,940.0,-85.0
3302,1385.0,-40.0
3303,980.0,-45.0
3304,956.0,-44.0
3305,1300.0,-28.0
3306,1461.0,6.0
3307,1241.0,58.0
3308,930.0,116.0
3309,957.0,176.0
3310,1300.0,235.0
3311,1464.0,282.0
3312,1225.0,300.0
3313,894.0,277.0
3314,918.0,211.0
3315,1263.0,116.0
3316,1478.0,9.0
3317,1254.0,-95.0
3318,934.0,-187.0
3319,933.0,-248.0
3320,1252.0,-268.0
3321,1478.0,-245.0
3322,1288.0,-195.0
3323,968.0,-138.0
3324,962.0,-89.0
3325,1538.0,2.0
3326,1398.0,15.0
3327,1039.0,20.0
3328,978.0,17.0
3329,1273.0,13.0
3330,1533.0,14.0
3331,1415.0,17.0
3332,1078.0,15.0
3333,982.0,9.0
3334,1242.0,5.0
3335,1497.0,7.0
3336,1397.0,13.0
3337,1076.0,17.0
3338,951.0,16.0
3339,1221.0,15.0
3340,1503.0,18.0
3341,1442.0,23.0
3342,1097.0,22.0
3343,949.0,15.0
3344,1190.0,8.0
3345,1504.0,4.0
3346,1450.0,2.0
3347,1108.0,-2.0
3348,925.0,-13.0
3349,1342.0,-19.0
3350,1024.0,-26.0
3351,805.0,-40.0
3352,959.0,-57.0
3353,1296.0,-68.0
3354,1327.0,-76.0
3355,1024.0,-84.0
3356,775.0,-95.0
3357,933.0,-106.0
3358,1267.0,-109.0
3359,1313.0,-104.0
3360,1019.0,-98.0
3361,774.0,-93.0
3362,944.0,-88.0
3363,1268.0,-78.0
3364,813.0,-43.0
3365,936.0,-43.0
3366,1271.0,-41.0
3367,1356.0,-37.0
3368,1056.0,-34.0
3369,809.0,-36.0
3370,917.0,-39.0
3371,1243.0,-35.0
3372,1356.0,-23.0
3373,1092.0,-9.0
3374,815.0,1.0
3375,900.0,9.0
3376,1231.0,18.0
3377,1362.0,30.0
3378,1109.0,38.0
3379,828.0,38.0
3380,889.0,33.0
3381,1229.0,30.0
3382,1357.0,30.0
3383,1101.0,31.0
3384,837.0,28.0
3385,929.0,24.0
3386,1290.0,24.0
3387,1464.0,30.0
3388,1233.0,37.0
3389,948.0,40.0
3390,991.0,38.0
3391,1328.0,38.0
3392,1515.0,41.0
3393,1311.0,44.0
3394,980.0,41.0
3395,1000.0,37.0
3396,1364.0,38.0
3397,1584.0,50.0
3398,1400.0,69.0
3399,1076.0,87.0
3400,1077.0,103.0
3401,1394.0,122.0
3402,1616.0,142.0
3403,1403.0,157.0
3404,1072.0,158.0
3405,1005.0,149.0
3406,1296.0,137.0
3407,1522.0,129.0
3408,1351.0,125.0
3409,991.0,122.0
3410,957.0,120.0
3411,1289.0,124.0
3412,1539.0,135.0
3413,1380.0,145.0
3414,1021.0,144.0
3415,947.0,128.0
3416,1241.0,103.0
3417,1504.0,76.0
3418,1385.0,45.0
3419,1047.0,10.0
3420,969.0,-24.0
3421,1538.0,-59.0
3422,1436.0,-54.0
3423,1090.0,-45.0
3424,998.0,-37.0
3425,1317.0,-28.0
3426,1647.0,-17.0
3427,1634.0,-10.0
3428,1376.0,-13.0
3429,1338.0,-23.0
3430,1655.0,-33.0
3431,1922.0,-35.0
3432,1782.0,-30.0
3433,1358.0,-23.0
3434,1140.0,-19.0
3435,1359.0,-12.0
3436,1673.0,2.0
3437,1628.0,24.0
3438,1306.0,50.0
3439,1112.0,82.0
3440,1319.0,125.0
3441,1571.0,179.0
3442,1525.0,233.0
3443,1192.0,268.0
3444,1015.0,269.0
3445,1231.0,232.0
3446,1567.0,165.0
3447,1573.0,75.0
3448,1225.0,-26.0
3449,1036.0,-123.0
3450,1246.0,-197.0
3451,1581.0,-234.0
3452,1583.0,-235.0
3453,1267.0,-214.0
3454,1053.0,-188.0
3455,1582.0,-142.0
3456,1600.0,-127.0
3457,1290.0,-122.0
3458,1080.0,-126.0
3459,1233.0,-128.0
3460,1561.0,-119.0
3461,1607.0,-98.0
3462,1299.0,-76.0
3463,1540.0,-52.0
3464,1628.0,-52.0
3465,1358.0,-52.0
3466,1076.0,-54.0
3467,1162.0,-55.0
3468,1495.0,-49.0
3469,1610.0,-35.0
3470,1353.0,-20.0
3471,1053.0,-11.0
3472,1128.0,-8.0
3473,1467.0,-6.0
3474,1620.0,-3.0
3475,1379.0,-5.0
3476,1072.0,-15.0
3477,1136.0,-30.0
3478,1452.0,-41.0
3479,1596.0,-45.0
3480,1336.0,-47.0
3481,1000.0,-51.0
3482,1007.0,-56.0
3483,1335.0,-56.0
3484,1504.0,-49.0
3485,1274.0,-40.0
3486,946.0,-34.0
3487,1513.0,-117.0
3488,1327.0,-103.0
3489,986.0,-89.0
3490,938.0,-77.0
3491,1221.0,-64.0
3492,1461.0,-47.0
3493,1330.0,-29.0
3494,1002.0,-17.0
3495,932.0,-10.0
3496,1215.0,-1.0
3497,1469.0,13.0
3498,1338.0,30.0
3499,1009.0,40.0
3500,922.0,42.0
3501,1172.0,41.0
3502,1421.0,42.0
3503,1322.0,41.0
3504,1006.0,36.0
3505,913.0,28.0
3506,1203.0,22.0
3507,1487.0,26.0
3508,1392.0,36.0
3509,1029.0,44.0
3510,1468.0,86.0
3511,1436.0,90.0
3512,1103.0,87.0
3513,929.0,74.0
3514,1129.0,62.0
3515,1463.0,56.0
3516,1472.0,59.0
3517,1157.0,63.0
3518,958.0,64.0
3519,1179.0,67.0
3520,1536.0,75.0
3521,1535.0,85.0
3522,1207.0,91.0
3523,998.0,89.0
3524,1200.0,84.0
3525,1536.0,83.0
3526,1545.0,86.0
3527,1226.0,87.0
3528,989.0,85.0
3529,1133.0,83.0
3530,1465.0,89.0
3531,1531.0,101.0
3532,1216.0,113.0
3533,919.0,118.0
3534,1539.0,-4.0
3535,1675.0,-5.0
3536,1462.0,0.0
3537,1236.0,4.0
3538,1389.0,10.0
3539,1811.0,23.0
3540,2009.0,41.0
3541,1799.0,57.0
3542,1519.0,64.0
3543,1525.0,64.0
3544,1809.0,65.0
3545,1868.0,71.0
3546,1543.0,79.0
3547,1216.0,88.0
3548,1274.0,103.0
3549,1589.0,232.0
3550,1245.0,284.0
3551,1241.0,325.0
3552,1558.0,351.0
3553,1756.0,352.0
3554,1552.0,319.0
3555,1221.0,246.0
3556,1250.0,143.0
3557,1575.0,33.0
3558,1773.0,-63.0
3559,1584.0,-135.0
3560,1280.0,-178.0
3561,1269.0,-189.0
3562,1575.0,-169.0
3563,1777.0,-127.0
3564,1616.0,-84.0
3565,1296.0,-57.0
3566,1271.0,-53.0
3567,1575.0,-63.0
3568,1810.0,-80.0
3569,1663.0,-97.0
3570,1828.0,-113.0
3571,1706.0,-96.0
3572,1382.0,-85.0
3573,1329.0,-85.0
3574,1585.0,-88.0
3575,1836.0,-88.0
3576,1717.0,-87.0
3577,1385.0,-89.0
3578,1304.0,-93.0
3579,1559.0,-94.0
3580,1856.0,-88.0
3581,1751.0,-78.0
3582,1383.0,-72.0
3583,1255.0,-71.0
3584,1524.0,-68.0
3585,1798.0,-61.0
3586,1730.0,-53.0
3587,1371.0,-51.0
3588,1223.0,-57.0
3589,1480.0,-66.0
3590,1735.0,-71.0
3591,1679.0,-73.0
3592,1362.0,-79.0
3593,1207.0,-88.0
3594,1444.0,-97.0
3595,1747.0,-99.0
3596,1712.0,-99.0
3597,1366.0,-101.0
3598,1172.0,-110.0
3599,1375.0,-120.0
3600,1659.0,-126.0
3601,1614.0,-128.0
3602,1267.0,-132.0
3603,1070.0,-139.0
3604,1281.0,-143.0
3605,1604.0,-139.0
3606,1587.0,-128.0
3607,1244.0,-110.0
3608,1596.0,-108.0
3609,1632.0,-109.0
3610,1302.0,-119.0
3611,1071.0,-139.0
3612,1241.0,-162.0
3613,1557.0,-180.0
3614,1599.0,-187.0
3615,1272.0,-188.0
3616,1029.0,-186.0
3617,1197.0,-177.0
3618,1567.0,-156.0
3619,1647.0,-128.0
3620,1352.0,-100.0
3621,1087.0,-81.0
3622,1211.0,-68.0
3623,1570.0,-56.0
3624,1640.0,-46.0
3625,1355.0,-42.0
3626,1524.0,43.0
3627,1672.0,35.0
3628,1435.0,26.0
3629,1120.0,15.0
3630,1171.0,8.0
3631,1509.0,13.0
3632,1689.0,30.0
3633,1463.0,53.0
3634,1160.0,71.0
3635,1169.0,83.0
3636,1483.0,93.0
3637,1675.0,102.0
3638,1498.0,104.0
3639,1188.0,96.0
3640,1223.0,83.0
3641,1753.0,72.0
3642,1561.0,76.0
3643,1223.0,79.0
3644,1207.0,80.0
3645,1548.0,83.0
3646,1787.0,91.0
3647,1617.0,98.0
3648,1281.0,99.0
3649,1257.0,95.0
3650,1562.0,95.0
3651,1808.0,103.0
3652,1640.0,116.0
3653,1270.0,125.0
3654,1176.0,130.0
3655,1456.0,133.0
3656,1667.0,138.0
3657,1516.0,141.0
3658,1180.0,138.0
3659,1111.0,129.0
3660,1429.0,123.0
3661,1687.0,124.0
3662,1570.0,128.0
3663,1232.0,127.0
3664,1123.0,117.0
3665,1428.0,101.0
3666,1680.0,81.0
3667,1539.0,56.0
3668,1206.0,22.0
3669,1127.0,-15.0
3670,1393.0,-47.0
3671,1648.0,-61.0
3672,1548.0,-58.0
3673,1227.0,-46.0
3674,1141.0,-29.0
3675,1776.0,37.0
3676,1501.0,42.0
3677,1390.0,33.0
3678,1672.0,16.0
3679,1944.0,0.0
3680,1787.0,-10.0
3681,1344.0,-21.0
3682,1092.0,-29.0
3683,1259.0,-28.0
3684,1602.0,-11.0
3685,1591.0,21.0
3686,1266.0,62.0
3687,1087.0,107.0
3688,1279.0,157.0
3689,1558.0,210.0
3690,1549.0,253.0
3691,1207.0,266.0
3692,1033.0,240.0
3693,1211.0,177.0
3694,1544.0,90.0
3695,1544.0,-8.0
3696,1222.0,-105.0
3697,1007.0,-186.0
3698,1200.0,-234.0
3699,1528.0,-238.0
3700,1540.0,-207.0
3701,1221.0,-158.0
3702,1008.0,-113.0
3703,1179.0,-80.0
3704,1500.0,-62.0
3705,1560.0,-58.0
3706,1255.0,-70.0
3707,1000.0,-93.0
3708,1562.0,-114.0
3709,1261.0,-98.0
3710,1003.0,-82.0
3711,1168.0,-68.0
3712,1510.0,-53.0
3713,1578.0,-39.0
3714,1269.0,-30.0
3715,989.0,-28.0
3716,1098.0,-29.0
3717,1451.0,-26.0
3718,1584.0,-17.0
3719,1318.0,-9.0
3720,1007.0,-7.0
3721,1080.0,-7.0
3722,1425.0,-3.0
3723,1523.0,6.0
3724,1271.0,14.0
3725,996.0,16.0
3726,1065.0,13.0
3727,1255.0,0.0
3728,915.0,0.0
3729,909.0,-2.0
3730,1227.0,2.0
3731,1391.0,14.0
3732,1172.0,28.0
3733,859.0,34.0
3734,857.0,33.0
3735,1181.0,29.0
3736,1371.0,24.0
3737,1196.0,16.0
3738,838.0,0.0
3739,832.0,-21.0
3740,1159.0,-40.0
3741,1372.0,-52.0
3742,1187.0,-59.0
3743,850.0,-67.0
3744,820.0,-75.0
3745,1118.0,-77.0
3746,1383.0,-69.0
3747,1216.0,-56.0
3748,868.0,-45.0
3749,792.0,-38.0
3750,1084.0,-31.0
3751,1349.0,-18.0
3752,1224.0,-6.0
3753,869.0,-1.0
3754,767.0,-1.0
3755,1082.0,-2.0
3756,1342.0,3.0
3757,1207.0,12.0
3758,881.0,17.0
3759,771.0,19.0
3760,1023.0,21.0
3761,1327.0,28.0
3762,1238.0,35.0
3763,885.0,37.0
3764,752.0,33.0
3765,1034.0,29.0
3766,1335.0,31.0
3767,1255.0,37.0
3768,921.0,40.0
3769,787.0,38.0
3770,1026.0,37.0
3771,1325.0,40.0
3772,1265.0,46.0
3773,906.0,48.0
3774,748.0,45.0
3775,1005.0,41.0
3776,1355.0,45.0
3777,1329.0,53.0
3778,981.0,60.0
3779,796.0,62.0
3780,1018.0,64.0
3781,1334.0,70.0
3782,1326.0,77.0
3783,1010.0,78.0
3784,860.0,70.0
3785,1077.0,60.0
3786,1430.0,55.0
3787,1451.0,58.0
3788,1139.0,62.0
3789,918.0,65.0
3790,1103.0,69.0
3791,1428.0,79.0
3792,1438.0,91.0
3793,1120.0,97.0
3794,870.0,95.0
3795,1019.0,90.0
3796,1368.0,91.0
3797,1432.0,100.0
3798,1103.0,113.0
3799,873.0,124.0
3800,1032.0,134.0
3801,1463.0,151.0
3802,1170.0,147.0
3803,921.0,126.0
3804,1040.0,95.0
3805,1366.0,64.0
3806,1452.0,39.0
3807,1199.0,18.0
3808,954.0,0.0
3809,1081.0,-9.0
3810,1425.0,-6.0
3811,1564.0,6.0
3812,1278.0,22.0
3813,1605.0,32.0
3814,1356.0,21.0
3815,1412.0,7.0
3816,1682.0,1.0
3817,1762.0,5.0
3818,1436.0,15.0
3819,1035.0,25.0
3820,1057.0,36.0
3821,1435.0,57.0
3822,1622.0,89.0
3823,1392.0,128.0
3824,1068.0,167.0
3825,1085.0,204.0
3826,1422.0,237.0
3827,1597.0,259.0
3828,1365.0,254.0
3829,1034.0,211.0
3830,1053.0,134.0
3831,1388.0,38.0
3832,1590.0,-57.0
3833,1389.0,-140.0
3834,1048.0,-202.0
3835,1036.0,-232.0
3836,1377.0,-225.0
3837,1604.0,-187.0
3838,1426.0,-137.0
3839,1087.0,-97.0
3840,1041.0,-77.0
3841,1359.0,-77.0
3842,1593.0,-91.0
3843,1449.0,-115.0
3844,1106.0,-146.0
3845,1051.0,-175.0
3846,1639.0,-187.0
3847,1491.0,-171.0
3848,1133.0,-153.0
3849,1058.0,-140.0
3850,1341.0,-129.0
3851,1616.0,-118.0
3852,1500.0,-110.0
3853,1174.0,-110.0
3854,1071.0,-115.0
3855,1340.0,-118.0
3856,1608.0,-112.0
3857,1493.0,-101.0
3858,1136.0,-93.0
3859,1011.0,-89.0
3860,1299.0,-87.0
3861,1589.0,-82.0
3862,1515.0,-78.0
3863,1165.0,-79.0
3864,1024.0,-85.0
3865,1274.0,-91.0
3866,1593.0,-90.0
3867,1540.0,-85.0
3868,1262.0,-95.0
3869,1599.0,-97.0
3870,1555.0,-97.0
3871,1211.0,-98.0
3872,1015.0,-102.0
3873,1237.0,-103.0
3874,1543.0,-96.0
3875,1511.0,-82.0
3876,932.0,-68.0
3877,1091.0,-83.0
3878,1401.0,-96.0
3879,1438.0,-103.0
3880,1110.0,-110.0
3881,859.0,-119.0
3882,1018.0,-127.0
3883,1384.0,-126.0
3884,1474.0,-119.0
3885,1155.0,-111.0
3886,895.0,-106.0
3887,1024.0,-100.0
3888,1355.0,-88.0
3889,1434.0,-71.0
3890,999.0,-49.0
3891,1360.0,-49.0
3892,1445.0,-46.0
3893,1165.0,-43.0
3894,859.0,-42.0
3895,951.0,-41.0
3896,1290.0,-31.0
3897,1399.0,-15.0
3898,1135.0,0.0
3899,840.0,6.0
3900,918.0,7.0
3901,1276.0,8.0
3902,1433.0,12.0
3903,1171.0,15.0
3904,868.0,13.0
3905,898.0,9.0
3906,1252.0,9.0
3907,1432.0,14.0
3908,1185.0,17.0
3909,876.0,13.0
3910,927.0,5.0
3911,1280.0,1.0
3912,1451.0,5.0
3913,1232.0,15.0
3914,937.0,23.0
3915,959.0,31.0
3916,1282.0,41.0
3917,1472.0,55.0
3918,1284.0,66.0
3919,966.0,68.0
3920,991.0,64.0
3921,1311.0,63.0
3922,1525.0,68.0
3923,1364.0,78.0
3924,1000.0,87.0
3925,937.0,94.0
3926,1224.0,103.0
3927,1431.0,117.0
3928,1243.0,129.0
3929,889.0,134.0
3930,843.0,132.0
3931,1158.0,131.0
3932,1385.0,137.0
3933,1216.0,145.0
3934,884.0,150.0
3935,826.0,148.0
3936,1108.0,143.0
3937,1372.0,135.0
3938,1254.0,121.0
3939,895.0,95.0
3940,798.0,60.0
3941,1111.0,26.0
3942,1389.0,2.0
3943,1116.0,26.0
3944,1313.0,25.0
3945,1526.0,34.0
3946,1414.0,53.0
3947,1065.0,79.0
3948,927.0,113.0
3949,1176.0,161.0
3950,1482.0,225.0
3951,1437.0,297.0
3952,1090.0,359.0
3953,895.0,398.0
3954,1087.0,406.0
3955,1390.0,382.0
3956,1403.0,327.0
3957,1093.0,241.0
3958,898.0,138.0
3959,1103.0,39.0
3960,1443.0,-33.0
3961,1439.0,-71.0
3962,1128.0,-79.0
3963,911.0,-66.0
3964,1114.0,-41.0
3965,1473.0,-12.0
3966,1522.0,10.0
3967,1033.0,2.0
3968,1165.0,4.0
3969,1527.0,8.0
3970,1616.0,14.0
3971,1307.0,16.0
3972,1050.0,13.0
3973,1146.0,6.0
3974,1490.0,3.0
3975,1611.0,7.0
3976,1337.0,11.0
3977,1042.0,13.0
3978,1113.0,15.0
3979,1457.0,22.0
3980,1601.0,34.0
3981,1350.0,43.0
3982,1054.0,43.0
3983,1111.0,35.0
3984,1439.0,26.0
3985,1593.0,19.0
3986,1373.0,11.0
3987,1056.0,-2.0
3988,1081.0,-17.0
3989,1410.0,-27.0
3990,1590.0,-30.0
3991,956.0,-63.0
3992,951.0,-77.0
3993,1300.0,-90.0
3994,1524.0,-100.0
3995,1350.0,-107.0
3996,1020.0,-118.0
3997,975.0,-130.0
3998,1295.0,-136.0
3999,1556.0,-133.0
4000,1410.0,-124.0
4001,1076.0,-119.0
4002,1015.0,-117.0
4003,1292.0,-113.0
4004,1539.0,-104.0
4005,999.0,-81.0
4006,1309.0,-74.0
4007,1589.0,-59.0
4008,1441.0,-41.0
4009,1081.0,-27.0
4010,972.0,-19.0
4011,1234.0,-13.0
4012,1529.0,-5.0
4013,1456.0,0.0
4014,1096.0,0.0
4015,1005.0,-9.0
4016,1289.0,-17.0
4017,1575.0,-17.0
4018,989.0,-2.0
4019,1242.0,-2.0
4020,1574.0,0.0
4021,1505.0,2.0
4022,1168.0,-1.0
4023,1039.0,-10.0
4024,1298.0,-17.0
4025,1629.0,-13.0
4026,1574.0,-1.0
4027,1213.0,10.0
4028,1059.0,18.0
4029,1285.0,23.0
4030,1607.0,28.0
4031,1587.0,32.0
4032,1274.0,28.0
4033,1099.0,19.0
4034,1305.0,11.0
4035,1636.0,14.0
4036,1637.0,28.0
4037,1295.0,42.0
4038,1073.0,52.0
4039,1232.0,59.0
4040,1526.0,64.0
4041,1535.0,68.0
4042,1212.0,64.0
4043,1003.0,53.0
4044,1175.0,41.0
4045,1510.0,38.0
4046,1538.0,44.0
4047,1225.0,50.0
4048,984.0,51.0
4049,1145.0,46.0
4050,1487.0,37.0
4051,1559.0,24.0
4052,1265.0,2.0
4053,1002.0,-28.0
4054,1132.0,-60.0
4055,1495.0,-81.0
4056,1576.0,-89.0
4057,1290.0,-88.0
4058,1007.0,-84.0
4059,1121.0,-77.0
4060,1503.0,-64.0
4061,1697.0,-47.0
4062,1510.0,-35.0
4063,1284.0,-32.0
4064,1429.0,-34.0
4065,1808.0,-34.0
4066,1971.0,-29.0
4067,1639.0,-23.0
4068,1267.0,-23.0
4069,1299.0,-25.0
4070,1550.0,-22.0
4071,1668.0,-9.0
4072,1405.0,10.0
4073,1103.0,36.0
4074,1154.0,73.0
4075,1467.0,124.0
4076,1635.0,187.0
4077,1381.0,246.0
4078,1045.0,283.0
4079,1073.0,286.0
4080,1406.0,258.0
4081,1593.0,199.0
4082,1371.0,116.0
4083,1055.0,15.0
4084,1063.0,-82.0
4085,1415.0,-158.0
4086,1658.0,-198.0
4087,1451.0,-205.0
4088,1128.0,-191.0
4089,1128.0,-166.0
4090,1448.0,-136.0
4091,1676.0,-107.0
4092,1516.0,-88.0
4093,1174.0,-86.0
4094,1136.0,-96.0
4095,1448.0,-105.0
4096,1678.0,-102.0
4097,1534.0,-89.0
4098,1196.0,-71.0
4099,1145.0,-50.0
4100,1441.0,-25.0
4101,1700.0,4.0
4102,1580.0,29.0
4103,1225.0,42.0
4104,1156.0,43.0
4105,1463.0,39.0
4106,1753.0,37.0
4107,1624.0,35.0
4108,1278.0,30.0
4109,1159.0,21.0
4110,1433.0,15.0
4111,1717.0,17.0
4112,1618.0,23.0
4113,1263.0,26.0
4114,1151.0,25.0
4115,1419.0,25.0
4116,1690.0,30.0
4117,1595.0,39.0
4118,1248.0,43.0
4119,1108.0,41.0
4120,1351.0,36.0
4121,1673.0,34.0
4122,1607.0,32.0
4123,1261.0,23.0
4124,1126.0,9.0
4125,1368.0,-4.0
4126,1641.0,-12.0
4127,1573.0,-14.0
4128,1208.0,-17.0
4129,1059.0,-25.0
4130,1291.0,-33.0
4131,1604.0,-35.0
4132,1538.0,-33.0
4133,1169.0,-32.0
4134,980.0,-35.0
4135,1183.0,-36.0
4136,1499.0,-30.0
4137,1525.0,-22.0
4138,1210.0,-18.0
4139,973.0,-24.0
4140,1142.0,-34.0
4141,1460.0,-43.0
4142,1469.0,-49.0
4143,1177.0,-59.0
4144,986.0,-72.0
4145,1172.0,-85.0
4146,1491.0,-90.0
4147,1510.0,-88.0
4148,1181.0,-84.0
4149,948.0,-82.0
4150,1103.0,-79.0
4151,1453.0,-72.0
4152,1514.0,-60.0
4153,1222.0,-51.0
4154,969.0,-47.0
4155,1115.0,-45.0
4156,1455.0,-37.0
4157,1529.0,-23.0
4158,1247.0,-10.0
4159,988.0,-3.0
4160,1099.0,-1.0
4161,1437.0,2.0
4162,1540.0,8.0
4163,1263.0,11.0
4164,992.0,9.0
4165,1078.0,6.0
4166,1419.0,9.0
4167,992.0,41.0
4168,1028.0,33.0
4169,1364.0,27.0
4170,1525.0,25.0
4171,1302.0,24.0
4172,961.0,20.0
4173,996.0,17.0
4174,1343.0,19.0
4175,1525.0,31.0
4176,1291.0,44.0
4177,950.0,52.0
4178,916.0,54.0
4179,1200.0,54.0
4180,1392.0,56.0
4181,1180.0,55.0
4182,848.0,47.0
4183,819.0,35.0
4184,1141.0,26.0
4185,1387.0,25.0
4186,1204.0,27.0
4187,859.0,26.0
4188,803.0,19.0
4189,1093.0,11.0
4190,1340.0,2.0
4191,1181.0,-10.0
4192,833.0,-32.0
4193,781.0,-59.0
4194,1075.0,-80.0
4195,1337.0,-88.0
4196,1207.0,-84.0
4197,862.0,-74.0
4198,791.0,-62.0
4199,1128.0,-45.0
4200,1486.0,-24.0
4201,1399.0,-6.0
4202,1128.0,0.0
4203,1103.0,-3.0
4204,1407.0,-10.0
4205,1647.0,-12.0
4206,1463.0,-8.0
4207,1061.0,-4.0
4208,851.0,0.0
4209,1050.0,11.0
4210,1320.0,34.0
4211,1271.0,68.0
4212,939.0,106.0
4213,792.0,148.0
4214,1007.0,195.0
4215,1294.0,246.0
4216,1248.0,289.0
4217,862.0,307.0
4218,713.0,288.0
4219,970.0,236.0
4220,1282.0,158.0
4221,1260.0,66.0
4222,928.0,-29.0
4223,744.0,-115.0
4224,954.0,-174.0
4225,1272.0,-194.0
4226,1268.0,-179.0
4227,944.0,-147.0
4228,772.0,-113.0
4229,968.0,-83.0
4230,1294.0,-60.0
4231,1334.0,-45.0
4232,1017.0,-42.0
4233,799.0,-48.0
4234,971.0,-53.0
4235,1296.0,-48.0
4236,1344.0,-32.0
4237,1028.0,-13.0
4238,804.0,1.0
4239,980.0,13.0
4240,1327.0,26.0
4241,1384.0,40.0
4242,1064.0,51.0
4243,816.0,56.0
4244,958.0,57.0
4245,1325.0,62.0
4246,1403.0,69.0
4247,1139.0,71.0
4248,859.0,65.0
4249,968.0,54.0
4250,1277.0,47.0
4251,1359.0,46.0
4252,917.0,39.0
4253,1263.0,39.0
4254,1374.0,44.0
4255,1111.0,48.0
4256,836.0,45.0
4257,916.0,39.0
4258,1261.0,35.0
4259,1397.0,33.0
4260,1172.0,27.0
4261,885.0,13.0
4262,939.0,-5.0
4263,1261.0,-21.0
4264,1385.0,-29.0
4265,823.0,-35.0
4266,1150.0,-27.0
4267,1344.0,-12.0
4268,1118.0,3.0
4269,789.0,12.0
4270,803.0,16.0
4271,1115.0,18.0
4272,1317.0,20.0
4273,1130.0,19.0
4274,803.0,7.0
4275,781.0,-13.0
4276,1121.0,-34.0
4277,1344.0,-51.0
4278,1142.0,-64.0
4279,814.0,-78.0
4280,805.0,-88.0
4281,1139.0,-89.0
4282,1362.0,-79.0
4283,1161.0,-63.0
4284,822.0,-51.0
4285,795.0,-45.0
4286,1134.0,-39.0
4287,1360.0,-31.0
4288,1204.0,-23.0
4289,854.0,-20.0
4290,809.0,-21.0
4291,1107.0,-18.0
4292,1344.0,-8.0
4293,1203.0,2.0
4294,855.0,8.0
4295,791.0,8.0
4296,1086.0,7.0
4297,1354.0,9.0
4298,1251.0,12.0
4299,907.0,12.0
4300,808.0,8.0
4301,1111.0,5.0
4302,1379.0,7.0
4303,1286.0,10.0
4304,941.0,9.0
4305,841.0,0.0
4306,1117.0,-7.0
4307,1428.0,-9.0
4308,1362.0,-7.0
4309,1010.0,-5.0
4310,863.0,-5.0
4311,1132.0,-2.0
4312,1441.0,6.0
4313,1387.0,19.0
4314,1057.0,26.0
4315,933.0,26.0
4316,1198.0,24.0
4317,1516.0,26.0
4318,1478.0,32.0
4319,1129.0,35.0
4320,924.0,34.0
4321,1118.0,33.0
4322,1418.0,36.0
4323,1406.0,42.0
4324,1067.0,43.0
4325,877.0,38.0
4326,1077.0,34.0
4327,1413.0,37.0
4328,1415.0,47.0
4329,1088.0,55.0
4330,869.0,56.0
4331,1636.0,-47.0
4332,1413.0,-37.0
4333,1213.0,-34.0
4334,1396.0,-34.0
4335,1790.0,-29.0
4336,1895.0,-18.0
4337,1530.0,-7.0
4338,1183.0,-1.0
4339,1218.0,1.0
4340,1493.0,7.0
4341,1571.0,19.0
4342,1314.0,35.0
4343,1050.0,54.0
4344,1171.0,81.0
4345,1522.0,121.0
4346,1647.0,170.0
4347,1361.0,213.0
4348,1051.0,233.0
4349,1140.0,221.0
4350,1470.0,179.0
4351,1619.0,110.0
4352,1375.0,20.0
4353,1056.0,-79.0
4354,1104.0,-169.0
4355,1491.0,-101.0
4356,1147.0,-90.0
4357,1673.0,-30.0
4358,1493.0,-11.0
4359,1166.0,-3.0
4360,1134.0,-7.0
4361,1440.0,-13.0
4362,1711.0,-14.0
4363,1559.0,-13.0
4364,1210.0,-13.0
4365,1102.0,-15.0
4366,1397.0,-14.0
4367,1682.0,-7.0
4368,1563.0,0.0
4369,1216.0,2.0
4370,1124.0,-1.0
4371,1408.0,-6.0
4372,1699.0,-4.0
4373,1601.0,0.0
4374,1251.0,2.0
4375,1139.0,0.0
4376,1216.0,26.0
4377,1044.0,25.0
4378,1541.0,15.0
4379,1174.0,6.0
4380,989.0,-9.0
4381,1197.0,-27.0
4382,1523.0,-42.0
4383,1517.0,-51.0
4384,1160.0,-62.0
4385,960.0,-76.0
4386,1181.0,-86.0
4387,1528.0,-89.0
4388,1541.0,-85.0
4389,1194.0,-81.0
4390,955.0,-82.0
4391,1128.0,-84.0
4392,1473.0,-81.0
4393,1524.0,-75.0
4394,1195.0,-72.0
4395,972.0,-73.0
4396,1127.0,-73.0
4397,1507.0,0.0
4398,1217.0,8.0
4399,934.0,13.0
4400,1047.0,15.0
4401,1394.0,20.0
4402,1513.0,29.0
4403,1259.0,36.0
4404,931.0,36.0
4405,990.0,31.0
4406,1333.0,29.0
4407,1478.0,31.0
4408,1227.0,33.0
4409,894.0,29.0
4410,948.0,23.0
4411,1275.0,22.0
4412,854.0,37.0
4413,874.0,36.0
4414,1206.0,37.0
4415,1367.0,41.0
4416,1116.0,42.0
4417,776.0,35.0
4418,751.0,22.0
4419,1071.0,12.0
4420,1302.0,9.0
4421,1104.0,9.0
4422,760.0,5.0
4423,730.0,0.0
4424,1043.0,-4.0
4425,1265.0,-2.0
4426,1088.0,-1.0
4427,741.0,-8.0
4428,709.0,-21.0
4429,1043.0,-33.0
4430,1276.0,-40.0
4431,1120.0,-41.0
4432,784.0,-43.0
4433,729.0,-43.0
4434,1032.0,-37.0
4435,1327.0,-22.0
4436,1245.0,-3.0
4437,972.0,10.0
4438,939.0,16.0
4439,1287.0,22.0
4440,1586.0,32.0
4441,1499.0,43.0
4442,1082.0,50.0
4443,914.0,54.0
4444,1168.0,59.0
4445,1397.0,73.0
4446,1275.0,93.0
4447,907.0,114.0
4448,783.0,138.0
4449,1059.0,171.0
4450,1344.0,216.0
4451,1246.0,266.0
4452,882.0,307.0
4453,723.0,329.0
4454,972.0,328.0
4455,1297.0,305.0
4456,1254.0,258.0
4457,917.0,188.0
4458,1310.0,-31.0
4459,1259.0,-62.0
4460,942.0,-71.0
4461,783.0,-67.0
4462,999.0,-53.0
4463,1333.0,-31.0
4464,1344.0,-10.0
4465,1009.0,1.0
4466,794.0,1.0
4467,998.0,-3.0
4468,1340.0,-2.0
4469,1362.0,4.0
4470,1041.0,12.0
4471,832.0,18.0
4472,1006.0,24.0
4473,1329.0,35.0
4474,1371.0,49.0
4475,1061.0,60.0
4476,839.0,64.0
4477,1004.0,65.0
4478,1346.0,69.0
4479,1398.0,75.0
4480,1110.0,79.0
4481,889.0,75.0
4482,1046.0,67.0
4483,1377.0,62.0
4484,1433.0,61.0
4485,1133.0,59.0
4486,871.0,52.0
4487,968.0,43.0
4488,1329.0,39.0
4489,1453.0,41.0
4490,1187.0,44.0
4491,903.0,43.0
4492,991.0,41.0
4493,1353.0,45.0
4494,1462.0,53.0
4495,1205.0,58.0
4496,922.0,54.0
4497,1002.0,43.0
4498,1339.0,30.0
4499,1498.0,20.0
4500,1227.0,11.0
4501,902.0,0.0
4502,943.0,-10.0
4503,1283.0,-11.0
4504,1441.0,-2.0
4505,1200.0,7.0
4506,851.0,12.0
4507,867.0,10.0
4508,1200.0,9.0
4509,1391.0,9.0
4510,1184.0,7.0
4511,843.0,-2.0
4512,860.0,-16.0
4513,1176.0,-29.0
4514,1379.0,-36.0
4515,1196.0,-44.0
4516,862.0,-57.0
4517,850.0,-75.0
4518,1183.0,-91.0
4519,1416.0,-100.0
4520,1253.0,-105.0
4521,895.0,-110.0
4522,813.0,-115.0
4523,1121.0,-114.0
4524,1410.0,-105.0
4525,1261.0,-92.0
4526,931.0,-83.0
4527,857.0,-79.0
4528,1148.0,-74.0
4529,1416.0,-63.0
4530,986.0,-42.0
4531,878.0,-41.0
4532,1149.0,-41.0
4533,1439.0,-38.0
4534,1338.0,-34.0
4535,952.0,-34.0
4536,841.0,-39.0
4537,1146.0,-41.0
4538,1422.0,-34.0
4539,1331.0,-21.0
4540,991.0,-10.0
4541,867.0,-3.0
4542,1136.0,1.0
4543,1448.0,9.0
4544,1379.0,15.0
4545,1039.0,13.0
4546,903.0,1.0
4547,1127.0,-12.0
4548,1445.0,-21.0
4549,1421.0,-25.0
4550,1076.0,-29.0
4551,933.0,-34.0
4552,1155.0,-36.0
4553,1469.0,-16.0
4554,1143.0,-6.0
4555,960.0,-2.0
4556,1176.0,0.0
4557,1513.0,3.0
4558,1501.0,8.0
4559,1176.0,9.0
4560,937.0,4.0
4561,1405.0,-19.0
4562,1142.0,-41.0
4563,887.0,-66.0
4564,1016.0,-89.0
4565,1356.0,-99.0
4566,1438.0,-95.0
4567,1151.0,-83.0
4568,882.0,-73.0
4569,1034.0,-64.0
4570,1436.0,-55.0
4571,1590.0,-47.0
4572,1368.0,-46.0
4573,1128.0,-53.0
4574,1226.0,-63.0
4575,1543.0,-66.0
4576,1627.0,-60.0
4577,1309.0,-50.0
4578,929.0,-43.0
4579,921.0,-35.0
4580,1229.0,-23.0
4581,1399.0,-2.0
4582,1151.0,22.0
4583,836.0,49.0
4584,843.0,77.0
4585,1157.0,110.0
4586,1315.0,142.0
4587,1079.0,158.0
4588,765.0,147.0
4589,764.0,105.0
4590,1062.0,42.0
4591,1271.0,-30.0
4592,1082.0,-104.0
4593,758.0,-172.0
4594,751.0,-220.0
4595,1083.0,-238.0
4596,1324.0,-225.0
4597,1139.0,-192.0
4598,798.0,-157.0
4599,764.0,-128.0
4600,730.0,-110.0
4601,1055.0,-112.0
4602,1311.0,-99.0
4603,1177.0,-75.0
4604,849.0,-50.0
4605,754.0,-28.0
4606,1057.0,-9.0
4607,1346.0,9.0
4608,1245.0,23.0
4609,871.0,24.0
4610,775.0,16.0
4611,1065.0,7.0
4612,1342.0,5.0
4613,1227.0,8.0
4614,864.0,10.0
4615,730.0,13.0
4616,1000.0,20.0
4617,1293.0,34.0
4618,1224.0,52.0
4619,872.0,65.0
4620,751.0,70.0
4621,1014.0,71.0
4622,1318.0,74.0
4623,1274.0,76.0
4624,928.0,70.0
4625,762.0,57.0
4626,1024.0,41.0
4627,1344.0,31.0
4628,1304.0,26.0
4629,985.0,22.0
4630,814.0,16.0
4631,1035.0,16.0
4632,1343.0,26.0
4633,1313.0,42.0
4634,963.0,57.0
4635,774.0,66.0
4636,974.0,71.0
4637,1309.0,78.0
4638,1335.0,85.0
4639,1005.0,88.0
4640,800.0,83.0
4641,975.0,78.0
4642,1299.0,78.0
4643,1317.0,82.0
4644,1009.0,81.0
4645,797.0,73.0
4646,986.0,60.0
4647,1344.0,51.0
4648,1415.0,46.0
4649,1095.0,41.0
4650,866.0,34.0
4651,1014.0,31.0
4652,1341.0,34.0
4653,1417.0,44.0
4654,1137.0,50.0
4655,895.0,49.0
4656,1007.0,45.0
4657,1336.0,44.0
4658,1415.0,48.0
4659,1138.0,55.0
4660,876.0,60.0
4661,995.0,64.0
4662,1469.0,84.0
4663,1164.0,90.0
4664,877.0,85.0
4665,955.0,74.0
4666,1318.0,62.0
4667,1439.0,55.0
4668,1186.0,47.0
4669,897.0,36.0
4670,939.0,26.0
4671,1290.0,23.0
4672,1472.0,28.0
4673,1225.0,34.0
4674,913.0,35.0
4675,951.0,30.0
4676,1300.0,26.0
4677,1482.0,23.0
4678,1277.0,18.0
4679,948.0,7.0
4680,964.0,-6.0
4681,1310.0,-14.0
4682,1544.0,-14.0
4683,1348.0,-10.0
4684,1003.0,-7.0
4685,1009.0,-7.0
4686,1334.0,-4.0
4687,1561.0,3.0
4688,1415.0,11.0
4689,1086.0,12.0
4690,1060.0,6.0
4691,1367.0,3.0
4692,1580.0,7.0
4693,1409.0,13.0
4694,1074.0,17.0
4695,1007.0,17.0
4696,1299.0,20.0
4697,1384.0,35.0
4698,1028.0,38.0
4699,954.0,36.0
4700,1265.0,35.0
4701,1541.0,37.0
4702,1384.0,39.0
4703,1036.0,34.0
4704,956.0,20.0
4705,1244.0,3.0
4706,1510.0,-10.0
4707,1415.0,-24.0
4708,1074.0,-41.0
4709,1507.0,-73.0
4710,1168.0,-68.0
4711,1048.0,-66.0
4712,1368.0,-63.0
4713,1753.0,-56.0
4714,1742.0,-49.0
4715,1461.0,-47.0
4716,1355.0,-50.0
4717,1616.0,-52.0
4718,1865.0,-45.0
4719,1773.0,-32.0
4720,1367.0,-19.0
4721,1098.0,-10.0
4722,1280.0,0.0
4723,1616.0,20.0
4724,1601.0,48.0
4725,1246.0,79.0
4726,1063.0,110.0
4727,1268.0,144.0
4728,1575.0,178.0
4729,1576.0,204.0
4730,1273.0,204.0
4731,1046.0,171.0
4732,1218.0,109.0
4733,1555.0,30.0
4734,1595.0,-53.0
4735,1292.0,-133.0
4736,1082.0,-197.0
4737,1252.0,-233.0
4738,1583.0,-232.0
4739,1611.0,-200.0
4740,1328.0,-154.0
4741,1103.0,-110.0
4742,1247.0,-76.0
4743,1391.0,-47.0
4744,1111.0,-62.0
4745,1242.0,-80.0
4746,1579.0,-87.0
4747,1662.0,-82.0
4748,1368.0,-71.0
4749,1082.0,-61.0
4750,1216.0,-52.0
4751,1456.0,-43.0
4752,1135.0,-43.0
4753,1174.0,-43.0
4754,1505.0,-38.0
4755,1680.0,-28.0
4756,1484.0,-20.0
4757,1176.0,-20.0
4758,1174.0,-26.0
4759,1515.0,-31.0
4760,1736.0,-31.0
4761,1530.0,-30.0
4762,1199.0,-32.0
4763,1182.0,-35.0
4764,1500.0,-33.0
4765,1706.0,-24.0
4766,1514.0,-14.0
4767,1168.0,-8.0
4768,1138.0,-7.0
4769,1440.0,-4.0
4770,1653.0,2.0
4771,1472.0,11.0
4772,1129.0,15.0
4773,1090.0,14.0
4774,1392.0,13.0
4775,1195.0,-33.0
4776,1075.0,-30.0
4777,1327.0,-26.0
4778,1604.0,-17.0
4779,1547.0,-8.0
4780,1217.0,-4.0
4781,1096.0,-7.0
4782,1325.0,-11.0
4783,1592.0,-9.0
4784,1542.0,-3.0
4785,1221.0,0.0
4786,1086.0,0.0
4787,1316.0,1.0
4788,1636.0,8.0
4789,1598.0,17.0
4790,1240.0,22.0
4791,1057.0,22.0
4792,1290.0,20.0
4793,1616.0,22.0
4794,1604.0,26.0
4795,1290.0,28.0
4796,1061.0,24.0
4797,1284.0,21.0
4798,1648.0,23.0
4799,1372.0,51.0
4800,1130.0,53.0
4801,1295.0,52.0
4802,1678.0,53.0
4803,1759.0,56.0
4804,1462.0,55.0
4805,1191.0,48.0
4806,1306.0,41.0
4807,1638.0,42.0
4808,1734.0,51.0
4809,1441.0,61.0
4810,1121.0,65.0
4811,1194.0,66.0
4812,1507.0,69.0
4813,1644.0,76.0
4814,1369.0,81.0
4815,1091.0,81.0
4816,1192.0,78.0
4817,1530.0,78.0
4818,1665.0,81.0
4819,1395.0,78.0
4820,1086.0,65.0
4821,1152.0,42.0
4822,1507.0,17.0
4823,1725.0,11.0
4824,1458.0,2.0
4825,1502.0,-11.0
4826,1771.0,-21.0
4827,1914.0,-24.0
4828,1643.0,-22.0
4829,1231.0,-19.0
4830,1102.0,-14.0
4831,1422.0,1.0
4832,1706.0,30.0
4833,1531.0,71.0
4834,1175.0,116.0
4835,1118.0,162.0
4836,1433.0,206.0
4837,1656.0,242.0
4838,1499.0,255.0
4839,1154.0,230.0
4840,1087.0,166.0
4841,1397.0,76.0
4842,1627.0,-21.0
4843,1499.0,-112.0
4844,1167.0,-186.0
4845,1098.0,-230.0
4846,1381.0,-235.0
4847,1246.0,-39.0
4848,1104.0,-28.0
4849,1342.0,-19.0
4850,1635.0,-8.0
4851,1588.0,1.0
4852,1269.0,7.0
4853,1140.0,8.0
4854,1357.0,8.0
4855,1618.0,13.0
4856,1582.0,19.0
4857,1266.0,21.0
4858,1086.0,17.0
4859,1294.0,11.0
4860,1628.0,10.0
4861,1636.0,15.0
4862,1301.0,18.0
4863,1115.0,19.0
4864,1314.0,19.0
4865,1648.0,24.0
4866,1628.0,30.0
4867,1308.0,30.0
4868,1098.0,21.0
4869,1310.0,8.0
4870,1655.0,0.0
4871,1689.0,-2.0
4872,1369.0,-3.0
4873,1147.0,-3.0
4874,1297.0,0.0
4875,1609.0,9.0
4876,1632.0,23.0
4877,1300.0,31.0
4878,1050.0,30.0
4879,1178.0,24.0
4880,1508.0,20.0
4881,1572.0,20.0
4882,1295.0,21.0
4883,1018.0,20.0
4884,1134.0,19.0
4885,1331.0,26.0
4886,1005.0,11.0
4887,1120.0,-12.0
4888,1480.0,-35.0
4889,1588.0,-54.0
4890,1317.0,-69.0
4891,1024.0,-82.0
4892,1094.0,-87.0
4893,1455.0,-80.0
4894,1605.0,-62.0
4895,1358.0,-41.0
4896,1034.0,-25.0
4897,1100.0,-16.0
4898,1446.0,-8.0
4899,1579.0,0.0
4900,1335.0,3.0
4901,1049.0,-1.0
4902,1075.0,-9.0
4903,1389.0,-13.0
4904,1560.0,-10.0
4905,1359.0,-3.0
4906,1067.0,0.0
4907,1096.0,2.0
4908,1385.0,7.0
4909,1580.0,16.0
4910,1372.0,23.0
4911,1038.0,21.0
4912,1043.0,13.0
4913,1385.0,5.0
4914,1606.0,2.0
4915,1409.0,1.0
4916,1024.0,0.0
4917,982.0,-3.0
4918,1336.0,0.0
4919,1584.0,9.0
4920,1405.0,20.0
4921,1084.0,24.0
4922,1032.0,21.0
4923,1371.0,18.0
4924,1599.0,18.0
4925,1439.0,19.0
4926,1101.0,15.0
4927,1053.0,7.0
4928,1368.0,1.0
4929,1664.0,1.0
4930,1537.0,4.0
4931,1207.0,4.0
4932,1115.0,3.0
4933,1453.0,6.0
4934,1760.0,17.0
4935,1641.0,30.0
4936,1257.0,39.0
4937,1132.0,41.0
4938,1399.0,42.0
4939,1654.0,86.0
4940,1318.0,60.0
4941,1169.0,27.0
4942,1381.0,-3.0
4943,1714.0,-22.0
4944,1695.0,-28.0
4945,1376.0,-25.0
4946,1173.0,-18.0
4947,1385.0,-4.0
4948,1738.0,15.0
4949,1791.0,37.0
4950,1555.0,51.0
4951,1388.0,52.0
4952,1636.0,45.0
4953,2020.0,37.0
4954,1650.0,21.0
4955,1339.0,10.0
4956,1434.0,0.0
4957,1692.0,0.0
4958,1675.0,10.0
4959,1386.0,25.0
4960,1181.0,43.0
4961,1362.0,69.0
4962,1464.0,-212.0
4963,1164.0,-175.0
4964,1718.0,-61.0
4965,1463.0,-50.0
4966,1156.0,-59.0
4967,1240.0,-80.0
4968,1601.0,-99.0
4969,1721.0,-110.0
4970,1479.0,-115.0
4971,1166.0,-119.0
4972,1210.0,-122.0
4973,1543.0,-120.0
4974,1729.0,-113.0
4975,1491.0,-106.0
4976,1169.0,-105.0
4977,1192.0,-105.0
4978,1548.0,-99.0
4979,1735.0,-86.0
4980,1519.0,-71.0
4981,1183.0,-62.0
4982,1188.0,-60.0
4983,1511.0,-60.0
4984,1704.0,-58.0
4985,1520.0,-58.0
4986,1476.0,-71.0
4987,1717.0,-64.0
4988,1546.0,-53.0
4989,1188.0,-45.0
4990,1134.0,-42.0
4991,1423.0,-38.0
4992,1663.0,-32.0
4993,1538.0,-28.0
4994,1211.0,-31.0
4995,1142.0,-40.0
4996,1426.0,-46.0
4997,1679.0,-46.0
4998,1524.0,-41.0
4999,1603.0,-29.0
5000,1495.0,-23.0
5001,1111.0,-23.0
5002,954.0,-27.0
5003,1229.0,-29.0
5004,1528.0,-24.0
5005,1451.0,-17.0
5006,1123.0,-13.0
5007,990.0,-16.0
5008,1227.0,-22.0
5009,1543.0,-27.0
5010,1457.0,-32.0
5011,1092.0,-43.0
5012,960.0,-59.0
5013,1539.0,-83.0
5014,1486.0,-82.0
5015,1125.0,-80.0
5016,973.0,-76.0
5017,1213.0,-67.0
5018,1519.0,-51.0
5019,1469.0,-30.0
5020,1111.0,-15.0
5021,951.0,-9.0
5022,1163.0,-8.0
5023,1463.0,-5.0
5024,1434.0,0.0
5025,1111.0,2.0
5026,919.0,1.0
5027,1134.0,3.0
5028,1491.0,11.0
5029,1493.0,24.0
5030,1155.0,33.0
5031,929.0,34.0
5032,1127.0,31.0
5033,1456.0,29.0
5034,1490.0,28.0
5035,1170.0,23.0
5036,915.0,15.0
5037,1089.0,9.0
5038,1425.0,13.0
5039,1462.0,26.0
5040,1152.0,40.0
5041,948.0,51.0
5042,1074.0,58.0
5043,1410.0,67.0
5044,1015.0,68.0
5045,1097.0,65.0
5046,1418.0,63.0
5047,1535.0,66.0
5048,1296.0,70.0
5049,965.0,71.0
5050,1023.0,73.0
5051,1307.0,81.0
5052,1451.0,96.0
5053,1211.0,112.0
5054,916.0,120.0
5055,955.0,122.0
5056,1265.0,123.0
5057,1445.0,123.0
5058,1220.0,118.0
5059,872.0,105.0
5060,893.0,85.0
5061,1222.0,66.0
5062,1429.0,51.0
5063,1234.0,36.0
5064,902.0,18.0
5065,886.0,0.0
5066,1219.0,-10.0
5067,1417.0,-11.0
5068,1244.0,-7.0
5069,904.0,-6.0
5070,893.0,-7.0
5071,1241.0,-8.0
5072,1526.0,-4.0
5073,1419.0,-1.0
5074,1113.0,-3.0
5075,1108.0,-8.0
5076,1493.0,-10.0
5077,1794.0,-6.0
5078,1640.0,1.0
5079,1243.0,4.0
5080,1120.0,3.0
5081,1332.0,5.0
5082,1521.0,16.0
5083,1351.0,35.0
5084,1003.0,57.0
5085,923.0,86.0
5086,1230.0,125.0
5087,1483.0,178.0
5088,1362.0,234.0
5089,1010.0,278.0
5090,901.0,300.0
5091,1181.0,296.0
5092,1461.0,267.0
5093,1364.0,210.0
5094,1173.0,-51.0
5095,1471.0,-111.0
5096,1425.0,-140.0
5097,1087.0,-143.0
5098,947.0,-128.0
5099,1178.0,-100.0
5100,1484.0,-64.0
5101,1462.0,-34.0
5102,1134.0,-21.0
5103,969.0,-27.0
5104,1196.0,-43.0
5105,1515.0,-57.0
5106,1223.0,-51.0
5107,1537.0,-31.0
5108,1516.0,-7.0
5109,1184.0,9.0
5110,992.0,16.0
5111,1201.0,16.0
5112,1531.0,16.0
5113,1529.0,18.0
5114,1206.0,16.0
5115,981.0,10.0
5116,1150.0,4.0
5117,1467.0,5.0
5118,1478.0,12.0
5119,1161.0,17.0
5120,913.0,17.0
5121,1052.0,14.0
5122,1368.0,14.0
5123,1387.0,15.0
5124,1072.0,14.0
5125,821.0,5.0
5126,950.0,-7.0
5127,1270.0,-16.0
5128,1357.0,-23.0
5129,1073.0,-32.0
5130,833.0,-49.0
5131,935.0,-68.0
5132,1280.0,-84.0
5133,1414.0,-95.0
5134,1088.0,-108.0
5135,790.0,-125.0
5136,880.0,-143.0
5137,1222.0,-154.0
5138,1315.0,-155.0
5139,1028.0,-152.0
5140,741.0,-148.0
5141,821.0,-141.0
5142,1160.0,-125.0
5143,1310.0,-101.0
5144,1047.0,-77.0
5145,743.0,-61.0
5146,802.0,-55.0
5147,1122.0,-52.0
5148,1288.0,-53.0
5149,1056.0,-60.0
5150,775.0,-75.0
5151,847.0,-94.0
5152,1181.0,-105.0
5153,1349.0,-104.0
5154,1127.0,-96.0
5155,776.0,-86.0
5156,787.0,-76.0
5157,1119.0,-62.0
5158,1310.0,-45.0
5159,1127.0,-29.0
5160,808.0,-21.0
5161,810.0,-18.0
5162,1131.0,-10.0
5163,1332.0,4.0
5164,1139.0,23.0
5165,814.0,36.0
5166,787.0,42.0
5167,1126.0,45.0
5168,1364.0,47.0
5169,1190.0,44.0
5170,830.0,35.0
5171,787.0,22.0
5172,1071.0,16.0
5173,1336.0,20.0
5174,1184.0,31.0
5175,850.0,41.0
5176,811.0,46.0
5177,1125.0,51.0
5178,1364.0,59.0
5179,1232.0,65.0
5180,895.0,65.0
5181,802.0,58.0
5182,1097.0,52.0
5183,1404.0,50.0
5184,1313.0,50.0
5185,982.0,47.0
5186,867.0,41.0
5187,1134.0,39.0
5188,1444.0,45.0
5189,1360.0,57.0
5190,986.0,66.0
5191,844.0,69.0
5192,1126.0,72.0
5193,1481.0,77.0
5194,1408.0,85.0
5195,1046.0,88.0
5196,909.0,87.0
5197,1152.0,87.0
5198,1450.0,95.0
5199,1407.0,105.0
5200,1073.0,110.0
5201,892.0,106.0
5202,1101.0,97.0
5203,1436.0,90.0
5204,1387.0,86.0
5205,1042.0,81.0
5206,833.0,73.0
5207,1048.0,68.0
5208,1378.0,70.0
5209,1356.0,77.0
5210,1047.0,78.0
5211,859.0,70.0
5212,1072.0,57.0
5213,1383.0,44.0
5214,1386.0,32.0
5215,1060.0,17.0
5216,856.0,-1.0
5217,1040.0,-21.0
5218,1376.0,-33.0
5219,1427.0,-39.0
5220,1142.0,-43.0
5221,917.0,-49.0
5222,1063.0,-52.0
5223,1424.0,-48.0
5224,1556.0,-36.0
5225,1327.0,-26.0
5226,1166.0,-22.0
5227,1391.0,-22.0
5228,1780.0,-21.0
5229,1816.0,-18.0
5230,1466.0,-16.0
5231,1136.0,-18.0
5232,1170.0,-20.0
5233,1431.0,-13.0
5234,1501.0,2.0
5235,973.0,52.0
5236,1110.0,88.0
5237,1444.0,137.0
5238,1516.0,194.0
5239,1244.0,243.0
5240,949.0,267.0
5241,1011.0,257.0
5242,1353.0,214.0
5243,1528.0,139.0
5244,1255.0,39.0
5245,962.0,-72.0
5246,1044.0,-174.0
5247,1425.0,-243.0
5248,1581.0,-269.0
5249,1348.0,-257.0
5250,1023.0,-224.0
5251,1064.0,-180.0
5252,1392.0,-136.0
5253,1566.0,-100.0
5254,1352.0,-81.0
5255,1419.0,-22.0
5256,1646.0,-27.0
5257,1473.0,-26.0
5258,1145.0,-22.0
5259,1122.0,-18.0
5260,1426.0,-10.0
5261,1650.0,3.0
5262,1474.0,15.0
5263,1142.0,19.0
5264,1118.0,14.0
5265,1422.0,6.0
5266,1662.0,0.0
5267,1499.0,-3.0
5268,1151.0,-10.0
5269,1078.0,-18.0
5270,1380.0,-22.0
5271,1655.0,-18.0
5272,1542.0,-12.0
5273,1185.0,-10.0
5274,1074.0,-15.0
5275,1349.0,-19.0
5276,1627.0,-19.0
5277,1536.0,-18.0
5278,1187.0,-22.0
5279,1056.0,-30.0
5280,1300.0,-37.0
5281,1581.0,-38.0
5282,1452.0,-35.0
5283,1097.0,-34.0
5284,944.0,-37.0
5285,1192.0,-39.0
5286,1498.0,-37.0
5287,1439.0,-32.0
5288,1110.0,-31.0
5289,961.0,-37.0
5290,1198.0,-45.0
5291,1500.0,-49.0
5292,1457.0,-53.0
5293,962.0,-82.0
5294,1180.0,-103.0
5295,1473.0,-118.0
5296,1487.0,-125.0
5297,1153.0,-129.0
5298,936.0,-129.0
5299,1138.0,-122.0
5300,1491.0,-104.0
5301,1464.0,-79.0
5302,1127.0,-56.0
5303,925.0,-42.0
5304,1118.0,-34.0
5305,1439.0,-27.0
5306,1479.0,-20.0
5307,1143.0,-18.0
5308,924.0,-23.0
5309,1089.0,-27.0
5310,1423.0,-25.0
5311,1460.0,-18.0
5312,1171.0,-12.0
5313,933.0,-13.0
5314,1071.0,-16.0
5315,1384.0,-15.0
5316,1455.0,-10.0
5317,1190.0,-6.0
5318,941.0,-7.0
5319,1050.0,-9.0
5320,1387.0,-5.0
5321,1470.0,2.0
5322,1188.0,10.0
5323,893.0,12.0
5324,1037.0,10.0
5325,1360.0,12.0
5326,1465.0,17.0
5327,1202.0,22.0
5328,1383.0,21.0
5329,1526.0,28.0
5330,1268.0,35.0
5331,957.0,35.0
5332,1040.0,31.0
5333,1376.0,29.0
5334,1508.0,31.0
5335,1289.0,33.0
5336,936.0,92.0
5337,934.0,82.0
5338,1263.0,76.0
5339,1449.0,76.0
5340,1247.0,79.0
5341,890.0,77.0
5342,873.0,68.0
5343,1213.0,56.0
5344,1444.0,44.0
5345,1282.0,30.0
5346,952.0,11.0
5347,920.0,-9.0
5348,1251.0,-21.0
5349,1477.0,-20.0
5350,1290.0,-11.0
5351,955.0,-2.0
5352,935.0,2.0
5353,1303.0,5.0
5354,1646.0,11.0
5355,1563.0,16.0
5356,1261.0,16.0
5357,1225.0,14.0
5358,1541.0,18.0
5359,1734.0,31.0
5360,1552.0,47.0
5361,1137.0,58.0
5362,971.0,62.0
5363,1209.0,67.0
5364,1488.0,80.0
5365,1391.0,103.0
5366,1049.0,135.0
5367,928.0,174.0
5368,1200.0,224.0
5369,1466.0,278.0
5370,1364.0,322.0
5371,1001.0,334.0
5372,865.0,307.0
5373,1131.0,245.0
5374,1448.0,161.0
5375,1376.0,67.0
5376,1049.0,-24.0
5377,904.0,-99.0
5378,1165.0,-144.0
5379,1457.0,-150.0
5380,1395.0,-127.0
5381,1064.0,-92.0
5382,924.0,-61.0
5383,1453.0,-26.0
5384,1129.0,-35.0
5385,948.0,-51.0
5386,1164.0,-62.0
5387,1488.0,-61.0
5388,1492.0,-48.0
5389,1199.0,-33.0
5390,998.0,-21.0
5391,1188.0,-12.0
5392,1530.0,-1.0
5393,1527.0,10.0
5394,1167.0,16.0
5395,971.0,16.0
5396,1180.0,16.0
5397,1521.0,20.0
5398,1548.0,29.0
5399,1253.0,37.0
5400,998.0,39.0
5401,1160.0,41.0
5402,1502.0,46.0
5403,1576.0,53.0
5404,1279.0,56.0
5405,1034.0,50.0
5406,1153.0,39.0
5407,1489.0,31.0
5408,1589.0,27.0
5409,1279.0,24.0
5410,1031.0,18.0
5411,1157.0,13.0
5412,1478.0,14.0
5413,1580.0,21.0
5414,1302.0,28.0
5415,1018.0,27.0
5416,1120.0,22.0
5417,1472.0,19.0
5418,1600.0,18.0
5419,1292.0,16.0
5420,958.0,8.0
5421,1036.0,-1.0
5422,1357.0,-7.0
5423,1491.0,-7.0
5424,1237.0,-6.0
5425,929.0,-11.0
5426,989.0,-18.0
5427,1321.0,-22.0
5428,1492.0,-21.0
5429,1269.0,-20.0
5430,947.0,-27.0
5431,976.0,-40.0
5432,1290.0,-54.0
5433,1453.0,-66.0
5434,1259.0,-81.0
5435,953.0,-101.0
5436,957.0,-121.0
5437,1255.0,-132.0
5438,1481.0,-130.0
5439,1296.0,-119.0
5440,989.0,-107.0
5441,959.0,-95.0
5442,1251.0,-82.0
5443,1475.0,-67.0
5444,1304.0,-56.0
5445,968.0,-54.0
5446,940.0,-60.0
5447,1250.0,-65.0
5448,1473.0,-64.0
5449,1296.0,-57.0
5450,984.0,-50.0
5451,921.0,-44.0
5452,1215.0,-35.0
5453,1457.0,-21.0
5454,1313.0,-8.0
5455,976.0,-3.0
5456,905.0,-7.0
5457,1190.0,-12.0
5458,1440.0,-13.0
5459,997.0,-14.0
5460,944.0,-18.0
5461,1203.0,-20.0
5462,1474.0,-16.0
5463,1376.0,-9.0
5464,1023.0,-7.0
5465,925.0,-10.0
5466,1194.0,-14.0
5467,1472.0,-13.0
5468,1390.0,-9.0
5469,1070.0,-8.0
5470,939.0,-10.0
5471,1169.0,-8.0
5472,1476.0,1.0
5473,1435.0,16.0
5474,1123.0,29.0
5475,988.0,35.0
5476,1230.0,38.0
5477,1509.0,43.0
5478,1442.0,47.0
5479,1090.0,46.0
5480,925.0,39.0
5481,1115.0,31.0
5482,1408.0,30.0
5483,1375.0,35.0
5484,1025.0,40.0
5485,831.0,43.0
5486,1043.0,49.0
5487,1383.0,59.0
5488,1376.0,72.0
5489,1057.0,77.0
5490,854.0,69.0
5491,1037.0,51.0
5492,1372.0,31.0
5493,1375.0,9.0
5494,824.0,-47.0
5495,982.0,-73.0
5496,1312.0,-86.0
5497,1367.0,-86.0
5498,1079.0,-78.0
5499,856.0,-68.0
5500,1018.0,-55.0
5501,1391.0,-38.0
5502,1512.0,-18.0
5503,1016.0,108.0
5504,1381.0,155.0
5505,1506.0,206.0
5506,1236.0,246.0
5507,942.0,262.0
5508,1007.0,249.0
5509,1350.0,209.0
5510,1508.0,144.0
5511,1257.0,59.0
5512,940.0,-36.0
5513,993.0,-123.0
5514,1352.0,-180.0
5515,1521.0,-196.0
5516,1295.0,-177.0
5517,997.0,-136.0
5518,1025.0,-85.0
5519,1353.0,-32.0
5520,1544.0,10.0
5521,1332.0,34.0
5522,1003.0,32.0
5523,1038.0,12.0
5524,1387.0,-11.0
5525,1603.0,-26.0
5526,1403.0,-31.0
5527,1092.0,-29.0
5528,1075.0,-22.0
5529,1397.0,-7.0
5530,1616.0,13.0
5531,1440.0,31.0
5532,1105.0,38.0
5533,1094.0,35.0
5534,1407.0,30.0
5535,1649.0,30.0
5536,1465.0,33.0
5537,1102.0,35.0
5538,1061.0,36.0
5539,1526.0,55.0
5540,1174.0,55.0
5541,1098.0,46.0
5542,1402.0,36.0
5543,1648.0,31.0
5544,1522.0,27.0
5545,1182.0,20.0
5546,1089.0,9.0
5547,1387.0,0.0
5548,1656.0,-1.0
5549,1536.0,1.0
5550,1195.0,2.0
5551,1084.0,0.0
5552,1357.0,0.0
5553,1637.0,4.0
5554,1527.0,9.0
5555,1194.0,7.0
5556,1046.0,-2.0
5557,1330.0,-14.0
5558,1632.0,-21.0
5559,1537.0,-24.0
5560,1165.0,-28.0
5561,1006.0,-36.0
5562,1288.0,-41.0
5563,1597.0,-40.0
5564,1532.0,-36.0
5565,1197.0,-37.0
5566,1033.0,-44.0
5567,1270.0,-53.0
5568,1585.0,-57.0
5569,1552.0,-56.0
5570,1185.0,-58.0
5571,985.0,-65.0
5572,1208.0,-72.0
5573,1552.0,-72.0
5574,1577.0,-68.0
5575,1242.0,-66.0
5576,1023.0,-68.0
5577,1220.0,-68.0
5578,1580.0,-61.0
5579,1596.0,-49.0
5580,1274.0,-42.0
5581,1042.0,-42.0
5582,1223.0,-48.0
5583,1555.0,-51.0
5584,1593.0,-50.0
5585,1273.0,-49.0
5586,1225.0,-49.0
5587,1564.0,-39.0
5588,1621.0,-21.0
5589,1309.0,-5.0
5590,1051.0,3.0
5591,1170.0,5.0
5592,1536.0,7.0
5593,1636.0,9.0
5594,1350.0,7.0
5595,1077.0,-2.0
5596,1190.0,-12.0
5597,1521.0,-16.0
5598,1614.0,-12.0
5599,1336.0,-5.0
5600,1055.0,-3.0
5601,1173.0,-4.0
5602,1510.0,-3.0
5603,1608.0,1.0
5604,1323.0,4.0
5605,1023.0,1.0
5606,1099.0,-3.0
5607,1448.0,-4.0
5608,1607.0,0.0
5609,1373.0,3.0
5610,1295.0,-12.0
5611,951.0,-19.0
5612,990.0,-30.0
5613,1282.0,-37.0
5614,1446.0,-38.0
5615,1218.0,-35.0
5616,871.0,-34.0
5617,861.0,-33.0
5618,1180.0,-27.0
5619,1382.0,-17.0
5620,1214.0,-10.0
5621,908.0,-15.0
5622,886.0,-31.0
5623,1177.0,-52.0
5624,1398.0,-72.0
5625,1237.0,-94.0
5626,935.0,-118.0
5627,906.0,-142.0
5628,1168.0,-157.0
5629,1371.0,-159.0
5630,1199.0,-149.0
5631,884.0,-137.0
5632,894.0,-122.0
5633,1276.0,-102.0
5634,1568.0,-75.0
5635,1474.0,-47.0
5636,1171.0,-24.0
5637,1108.0,-10.0
5638,1359.0,0.0
5639,1535.0,11.0
5640,1366.0,18.0
5641,978.0,16.0
5642,816.0,10.0
5643,1063.0,9.0
5644,1341.0,26.0
5645,1291.0,59.0
5646,953.0,105.0
5647,803.0,156.0
5648,1049.0,209.0
5649,1330.0,255.0
5650,1416.0,102.0
5651,1406.0,108.0
5652,1435.0,109.0
5653,1152.0,108.0
5654,921.0,103.0
5655,1082.0,98.0
5656,1404.0,101.0
5657,1455.0,109.0
5658,1154.0,116.0
5659,903.0,115.0
5660,1028.0,108.0
5661,1385.0,102.0
5662,1463.0,97.0
5663,1188.0,91.0
5664,903.0,80.0
5665,1020.0,71.0
5666,1355.0,69.0
5667,1475.0,74.0
5668,1210.0,77.0
5669,936.0,73.0
5670,1019.0,64.0
5671,1349.0,55.0
5672,1455.0,48.0
5673,1140.0,41.0
5674,828.0,29.0
5675,872.0,18.0
5676,1198.0,13.0
5677,1369.0,16.0
5678,1135.0,21.0
5679,807.0,22.0
5680,851.0,20.0
5681,1182.0,19.0
5682,1327.0,21.0
5683,1129.0,19.0
5684,814.0,4.0
5685,835.0,-19.0
5686,1167.0,-46.0
5687,1359.0,-69.0
5688,1150.0,-89.0
5689,828.0,-108.0
5690,843.0,-122.0
5691,1190.0,-124.0
5692,1379.0,-112.0
5693,1191.0,-94.0
5694,854.0,-79.0
5695,821.0,-69.0
5696,1144.0,-60.0
5697,1394.0,-49.0
5698,1234.0,-40.0
5699,872.0,-36.0
5700,815.0,-35.0
5701,1172.0,-31.0
5702,1403.0,-19.0
5703,1211.0,-5.0
5704,880.0,3.0
5705,814.0,5.0
5706,1129.0,6.0
5707,1394.0,10.0
5708,1268.0,14.0
5709,895.0,12.0
5710,779.0,7.0
5711,1077.0,5.0
5712,829.0,-13.0
5713,1094.0,-17.0
5714,960.0,-5.0
5715,780.0,-9.0
5716,1001.0,-13.0
5717,1290.0,-11.0
5718,1238.0,-5.0
5719,925.0,1.0
5720,759.0,6.0
5721,971.0,13.0
5722,1271.0,25.0
5723,1246.0,40.0
5724,946.0,47.0
5725,764.0,41.0
5726,948.0,27.0
5727,1275.0,9.0
5728,1283.0,-9.0
5729,955.0,-31.0
5730,741.0,-56.0
5731,904.0,-74.0
5732,1240.0,-78.0
5733,1296.0,-70.0
5734,988.0,-58.0
5735,767.0,-47.0
5736,954.0,-37.0
5737,1356.0,-24.0
5738,1475.0,-11.0
5739,1226.0,-4.0
5740,1036.0,-7.0
5741,1235.0,-14.0
5742,1624.0,-20.0
5743,1670.0,-21.0
5744,1290.0,-22.0
5745,952.0,-24.0
5746,983.0,-23.0
5747,1244.0,-11.0
5748,1314.0,13.0
5749,1071.0,46.0
5750,856.0,84.0
5751,975.0,127.0
5752,1315.0,176.0
5753,1391.0,226.0
5754,1113.0,259.0
5755,816.0,262.0
5756,889.0,231.0
5757,1257.0,169.0
5758,1393.0,86.0
5759,1131.0,-10.0
5760,848.0,-107.0
5761,929.0,-183.0
5762,1265.0,-221.0
5763,1429.0,-216.0
5764,1176.0,-181.0
5765,838.0,-134.0
5766,861.0,-87.0
5767,1216.0,-49.0
5768,1395.0,-24.0
5769,1186.0,-18.0
5770,902.0,-31.0
5771,1242.0,-63.0
5772,1462.0,-62.0
5773,1283.0,-51.0
5774,968.0,-38.0
5775,952.0,-27.0
5776,1272.0,-18.0
5777,1488.0,-11.0
5778,1330.0,-9.0
5779,1016.0,-16.0
5780,990.0,-25.0
5781,1281.0,-27.0
5782,1482.0,-16.0
5783,1284.0,42.0
5784,1543.0,53.0
5785,1398.0,59.0
5786,1067.0,56.0
5787,1001.0,47.0
5788,1283.0,37.0
5789,1514.0,32.0
5790,1398.0,28.0
5791,1072.0,22.0
5792,971.0,11.0
5793,1249.0,3.0
5794,1570.0,1.0
5795,1487.0,5.0
5796,1140.0,7.0
5797,1028.0,8.0
5798,1311.0,10.0
5799,1580.0,15.0
5800,1460.0,19.0
5801,1087.0,14.0
5802,981.0,2.0
5803,1252.0,-11.0
5804,1538.0,-18.0
5805,1480.0,-19.0
5806,1142.0,-16.0
5807,975.0,-11.0
5808,1198.0,-2.0
5809,1499.0,11.0
5810,1446.0,25.0
5811,1129.0,27.0
5812,991.0,15.0
5813,1221.0,-3.0
5814,1527.0,-21.0
5815,1481.0,-34.0
5816,1152.0,-46.0
5817,951.0,-57.0
5818,1168.0,-61.0
5819,1525.0,-56.0
5820,1547.0,-48.0
5821,1187.0,-42.0
5822,981.0,-44.0
5823,1167.0,-46.0
5824,1492.0,-44.0
5825,1518.0,-37.0
5826,1227.0,-32.0
5827,1013.0,-32.0
5828,1172.0,-33.0
5829,1501.0,-29.0
5830,1556.0,-23.0
5831,1246.0,-18.0
5832,994.0,-19.0
5833,1161.0,-22.0
5834,1498.0,-20.0
5835,1525.0,-14.0
5836,1218.0,-10.0
5837,989.0,-12.0
5838,1120.0,-15.0
5839,1470.0,-13.0
5840,1589.0,-7.0
5841,1044.0,-3.0
5842,1147.0,-7.0
5843,1505.0,-8.0
5844,1588.0,-7.0
5845,1311.0,-9.0
5846,1066.0,-18.0
5847,1210.0,-30.0
5848,1575.0,-36.0
5849,1705.0,-34.0
5850,1435.0,-27.0
5851,1127.0,-20.0
5852,1195.0,-12.0
5853,1546.0,0.0
5854,1682.0,16.0
5855,1404.0,26.0
5856,1077.0,27.0
5857,1108.0,22.0
5858,1421.0,22.0
5859,1559.0,29.0
5860,1326.0,40.0
5861,1360.0,-103.0
5862,1566.0,-95.0
5863,1402.0,-81.0
5864,1068.0,-70.0
5865,1054.0,-62.0
5866,1381.0,-55.0
5867,1647.0,-45.0
5868,1580.0,-37.0
5869,1325.0,-34.0
5870,1339.0,-36.0
5871,1690.0,-34.0
5872,1875.0,-25.0
5873,1637.0,-13.0
5874,1226.0,-2.0
5875,1087.0,4.0
5876,1348.0,13.0
5877,1617.0,28.0
5878,1496.0,48.0
5879,1168.0,72.0
5880,1073.0,99.0
5881,1332.0,136.0
5882,1580.0,180.0
5883,1471.0,217.0
5884,1315.0,-53.0
5885,1652.0,-31.0
5886,1145.0,-15.0
5887,1371.0,-14.0
5888,1661.0,-5.0
5889,1673.0,9.0
5890,1373.0,21.0
5891,1182.0,25.0
5892,1385.0,24.0
5893,1708.0,23.0
5894,1703.0,24.0
5895,1385.0,24.0
5896,1183.0,23.0
5897,1369.0,26.0
5898,1691.0,37.0
5899,1724.0,53.0
5900,1408.0,64.0
5901,1173.0,65.0
5902,1349.0,61.0
5903,1680.0,57.0
5904,1704.0,55.0
5905,1377.0,49.0
5906,1601.0,-36.0
5907,1696.0,-36.0
5908,1424.0,-33.0
5909,1101.0,-32.0
5910,1193.0,-29.0
5911,1508.0,-22.0
5912,1627.0,-9.0
5913,1345.0,0.0
5914,1036.0,0.0
5915,1080.0,-6.0
5916,1417.0,-12.0
5917,1568.0,-15.0
5918,1317.0,-20.0
5919,1024.0,-31.0
5920,1095.0,-45.0
5921,1424.0,-55.0
5922,1574.0,-59.0
5923,1356.0,-63.0
5924,1043.0,-73.0
5925,1075.0,-86.0
5926,1419.0,-96.0
5927,1602.0,-99.0
5928,1362.0,-98.0
5929,1078.0,-98.0
5930,1120.0,-96.0
5931,1464.0,-85.0
5932,1648.0,-66.0
5933,1460.0,-45.0
5934,1137.0,-28.0
5935,1129.0,-17.0
5936,1441.0,-7.0
5937,1656.0,3.0
5938,1460.0,12.0
5939,1125.0,15.0
5940,1102.0,15.0
5941,1424.0,20.0
5942,1643.0,33.0
5943,1485.0,49.0
5944,1153.0,62.0
5945,1126.0,69.0
5946,1424.0,75.0
5947,1626.0,80.0
5948,1467.0,81.0
5949,1139.0,72.0
5950,1089.0,56.0
5951,1367.0,41.0
5952,1634.0,33.0
5953,1534.0,30.0
5954,1199.0,27.0
5955,1129.0,25.0
5956,1414.0,26.0
5957,1660.0,33.0
5958,1554.0,40.0
5959,1215.0,39.0
5960,1112.0,30.0
5961,1404.0,19.0
5962,1687.0,13.0
5963,1603.0,11.0
5964,1221.0,11.0
5965,1503.0,1.0
5966,1452.0,-14.0
5967,1126.0,-35.0
5968,929.0,-58.0
5969,1123.0,-75.0
5970,1466.0,-78.0
5971,1503.0,-70.0
5972,1233.0,-58.0
5973,1038.0,-47.0
5974,1269.0,-37.0
5975,1650.0,-26.0
5976,1707.0,-16.0
5977,1476.0,-14.0
5978,1308.0,-22.0
5979,1500.0,-33.0
5980,1780.0,-39.0
5981,1754.0,-37.0
5982,1348.0,-30.0
5983,1008.0,-17.0
5984,1114.0,2.0
5985,1489.0,35.0
5986,1607.0,78.0
5987,1339.0,124.0
5988,1507.0,-158.0
5989,1636.0,-118.0
5990,1085.0,-37.0
5991,1149.0,-19.0
5992,1482.0,-14.0
5993,1650.0,-18.0
5994,1456.0,-30.0
5995,1138.0,-46.0
5996,1160.0,-59.0
5997,1521.0,-58.0
5998,1678.0,-43.0
5999,1459.0,-20.0
6000,1121.0,-1.0
6001,1154.0,11.0
6002,1520.0,21.0
6003,1709.0,30.0
6004,1471.0,35.0
6005,1112.0,32.0
6006,1165.0,26.0
6007,1522.0,25.0
6008,1743.0,29.0
6009,1541.0,34.0
6010,1199.0,32.0
6011,1180.0,25.0
6012,1502.0,18.0
6013,1612.0,14.0
6014,1253.0,8.0
6015,1188.0,0.0
6016,1493.0,-4.0
6017,1717.0,0.0
6018,1592.0,8.0
6019,1246.0,13.0
6020,1216.0,14.0
6021,1552.0,17.0
6022,1808.0,23.0
6023,1654.0,29.0
6024,1304.0,29.0
6025,1231.0,22.0
6026,1521.0,15.0
6027,1773.0,12.0
6028,1655.0,9.0
6029,1291.0,2.0
6030,1167.0,-7.0
6031,1389.0,-13.0
6032,1636.0,-8.0
6033,1546.0,2.0
6034,1212.0,12.0
6035,1104.0,17.0
6036,1373.0,20.0
6037,1672.0,23.0
6038,1587.0,23.0
6039,1223.0,13.0
6040,1036.0,-7.0
6041,1306.0,-31.0
6042,1655.0,-53.0
6043,1615.0,-72.0
6044,1250.0,-93.0
6045,1215.0,-41.0
6046,1545.0,-41.0
6047,1562.0,-37.0
6048,1229.0,-36.0
6049,995.0,-41.0
6050,1164.0,-46.0
6051,1531.0,-46.0
6052,1564.0,-42.0
6053,1264.0,-40.0
6054,1034.0,-42.0
6055,1190.0,-43.0
6056,1535.0,-38.0
6057,1616.0,-26.0
6058,1307.0,-15.0
6059,1055.0,-10.0
6060,1506.0,-3.0
6061,1597.0,3.0
6062,1336.0,7.0
6063,1094.0,7.0
6064,1229.0,6.0
6065,1595.0,12.0
6066,1712.0,23.0
6067,1429.0,35.0
6068,1310.0,81.0
6069,1485.0,74.0
6070,1300.0,56.0
6071,989.0,-13.0
6072,1306.0,-47.0
6073,1501.0,-70.0
6074,1281.0,-83.0
6075,941.0,-90.0
6076,952.0,-93.0
6077,1293.0,-87.0
6078,1535.0,-73.0
6079,1387.0,-59.0
6080,1104.0,-50.0
6081,1140.0,-46.0
6082,1517.0,-40.0
6083,1750.0,-30.0
6084,1504.0,-19.0
6085,1100.0,-14.0
6086,1024.0,-15.0
6087,1302.0,-14.0
6088,1487.0,-7.0
6089,1318.0,5.0
6090,943.0,20.0
6091,878.0,42.0
6092,1202.0,74.0
6093,1457.0,117.0
6094,1311.0,158.0
6095,925.0,183.0
6096,816.0,184.0
6097,1102.0,162.0
6098,1389.0,121.0
6099,1286.0,63.0
6100,933.0,-4.0
6101,822.0,-72.0
6102,1108.0,-122.0
6103,1408.0,-144.0
6104,1303.0,-141.0
6105,962.0,-123.0
6106,815.0,-101.0
6107,1071.0,-77.0
6108,1363.0,-54.0
6109,1270.0,-37.0
6110,936.0,-33.0
6111,796.0,-38.0
6112,1056.0,-42.0
6113,1383.0,-37.0
6114,1332.0,-23.0
6115,1007.0,-8.0
6116,845.0,4.0
6117,1034.0,15.0
6118,1326.0,27.0
6119,1344.0,35.0
6120,1032.0,34.0
6121,854.0,25.0
6122,1050.0,15.0
6123,1356.0,13.0
6124,1320.0,20.0
6125,1001.0,30.0
6126,1279.0,26.0
6127,1313.0,29.0
6128,1036.0,29.0
6129,789.0,22.0
6130,931.0,13.0
6131,1283.0,8.0
6132,1338.0,8.0
6133,1021.0,8.0
6134,744.0,6.0
6135,845.0,5.0
6136,1189.0,9.0
6137,1269.0,15.0
6138,976.0,19.0
6139,681.0,14.0
6140,748.0,7.0
6141,1124.0,4.0
6142,1265.0,6.0
6143,996.0,8.0
6144,704.0,5.0
6145,783.0,-1.0
6146,1128.0,-6.0
6147,1253.0,-9.0
6148,1007.0,-16.0
6149,1050.0,18.0
6150,1223.0,19.0
6151,1031.0,20.0
6152,734.0,18.0
6153,734.0,14.0
6154,1041.0,13.0
6155,1281.0,18.0
6156,1103.0,24.0
6157,744.0,26.0
6158,678.0,23.0
6159,990.0,21.0
6160,1254.0,23.0
6161,1107.0,23.0
6162,770.0,18.0
6163,720.0,10.0
6164,1028.0,6.0
6165,1291.0,10.0
6166,1170.0,18.0
6167,808.0,24.0
6168,723.0,24.0
6169,1010.0,24.0
6170,1290.0,25.0
6171,1190.0,25.0
6172,866.0,20.0
6173,733.0,12.0
6174,1023.0,8.0
6175,1332.0,15.0
6176,844.0,37.0
6177,693.0,42.0
6178,940.0,45.0
6179,1215.0,49.0
6180,1118.0,51.0
6181,793.0,47.0
6182,672.0,37.0
6183,951.0,30.0
6184,1240.0,30.0
6185,1172.0,35.0
6186,831.0,38.0
6187,666.0,33.0
6188,1385.0,-5.0
6189,1429.0,3.0
6190,1163.0,4.0
6191,1019.0,-2.0
6192,1242.0,-12.0
6193,1563.0,-16.0
6194,1568.0,-15.0
6195,1207.0,-13.0
6196,903.0,-11.0
6197,1001.0,-4.0
6198,1300.0,14.0
6199,1367.0,44.0
6200,1083.0,79.0
6201,832.0,115.0
6202,948.0,150.0
6203,1263.0,215.0
6204,1019.0,225.0
6205,783.0,207.0
6206,910.0,162.0
6207,1243.0,100.0
6208,1350.0,30.0
6209,1068.0,-41.0
6210,805.0,-108.0
6211,1450.0,-56.0
6212,1199.0,-34.0
6213,1306.0,0.0
6214,1490.0,10.0
6215,1279.0,16.0
6216,959.0,17.0
6217,975.0,13.0
6218,1316.0,13.0
6219,1491.0,17.0
6220,1284.0,20.0
6221,975.0,17.0
6222,981.0,8.0
6223,1295.0,2.0
6224,1521.0,1.0
6225,1354.0,2.0
6226,993.0,1.0
6227,941.0,-1.0
6228,1233.0,-1.0
6229,1462.0,1.0
6230,1299.0,4.0
6231,925.0,0.0
6232,907.0,-9.0
6233,1359.0,-66.0
6234,1003.0,-51.0
6235,887.0,-36.0
6236,1141.0,-20.0
6237,1439.0,-4.0
6238,1344.0,4.0
6239,1008.0,1.0
6240,879.0,-13.0
6241,1150.0,-31.0
6242,1467.0,-45.0
6243,1428.0,-54.0
6244,1075.0,-62.0
6245,922.0,-69.0
6246,1150.0,-73.0
6247,1454.0,-70.0
6248,1410.0,-63.0
6249,1097.0,-59.0
6250,925.0,-61.0
6251,1152.0,-61.0
6252,1471.0,-55.0
6253,1437.0,-43.0
6254,1141.0,-30.0
6255,972.0,-21.0
6256,1188.0,-13.0
6257,1528.0,-3.0
6258,1515.0,5.0
6259,1177.0,7.0
6260,977.0,0.0
6261,1160.0,-7.0
6262,1490.0,-10.0
6263,1552.0,-7.0
6264,1275.0,-3.0
6265,1016.0,0.0
6266,1163.0,4.0
6267,1488.0,16.0
6268,1544.0,32.0
6269,1268.0,43.0
6270,1064.0,44.0
6271,1234.0,40.0
6272,1563.0,35.0
6273,1623.0,33.0
6274,1318.0,29.0
6275,1060.0,23.0
6276,1238.0,17.0
6277,1587.0,18.0
6278,1689.0,23.0
6279,1427.0,27.0
6280,1147.0,25.0
6281,1235.0,23.0
6282,1570.0,26.0
6283,1391.0,43.0
6284,1092.0,45.0
6285,1152.0,44.0
6286,1456.0,45.0
6287,1585.0,50.0
6288,1334.0,54.0
6289,1026.0,53.0
6290,1109.0,50.0
6291,1459.0,50.0
6292,1603.0,52.0
6293,1369.0,49.0
6294,1061.0,36.0
6295,1100.0,15.0
6296,1433.0,-7.0
6297,1598.0,-27.0
6298,1370.0,-47.0
6299,1051.0,-69.0
6300,1079.0,-88.0
6301,1418.0,-95.0
6302,1609.0,-89.0
6303,1115.0,-33.0
6304,1371.0,-23.0
6305,1585.0,0.0
6306,1451.0,32.0
6307,1128.0,70.0
6308,1067.0,112.0
6309,1351.0,156.0
6310,1584.0,198.0
6311,1424.0,223.0
6312,1089.0,217.0
6313,1004.0,176.0
6314,1270.0,109.0
6315,1558.0,29.0
6316,1453.0,-51.0
6317,1101.0,-124.0
6318,1012.0,-177.0
6319,1286.0,-198.0
6320,1581.0,-187.0
6321,1479.0,-154.0
6322,1119.0,-118.0
6323,990.0,-89.0
6324,1252.0,-72.0
6325,1559.0,-63.0
6326,938.0,10.0
6327,1190.0,5.0
6328,1526.0,6.0
6329,1156.0,18.0
6330,946.0,18.0
6331,1151.0,18.0
6332,1483.0,21.0
6333,1470.0,26.0
6334,1136.0,26.0
6335,912.0,18.0
6336,1055.0,8.0
6337,1370.0,4.0
6338,1382.0,4.0
6339,1058.0,5.0
6340,848.0,3.0
6341,990.0,3.0
6342,1299.0,7.0
6343,1333.0,14.0
6344,1008.0,17.0
6345,772.0,12.0
6346,893.0,2.0
6347,1221.0,-6.0
6348,1275.0,-14.0
6349,1097.0,-56.0
6350,1245.0,-57.0
6351,808.0,-58.0
6352,1136.0,-47.0
6353,1294.0,-27.0
6354,1070.0,-4.0
6355,774.0,12.0
6356,808.0,25.0
6357,1157.0,37.0
6358,1340.0,50.0
6359,1135.0,63.0
6360,788.0,71.0
6361,807.0,78.0
6362,1137.0,90.0
6363,1334.0,109.0
6364,801.0,141.0
6365,1116.0,143.0
6366,1340.0,145.0
6367,1131.0,146.0
6368,796.0,140.0
6369,758.0,129.0
6370,1091.0,121.0
6371,1327.0,119.0
6372,1151.0,118.0
6373,794.0,112.0
6374,743.0,103.0
6375,1058.0,95.0
6376,1319.0,92.0
6377,1165.0,90.0
6378,794.0,83.0
6379,708.0,70.0
6380,1023.0,59.0
6381,1305.0,54.0
6382,1169.0,52.0
6383,815.0,48.0
6384,744.0,41.0
6385,1035.0,37.0
6386,1298.0,39.0
6387,1193.0,44.0
6388,880.0,43.0
6389,773.0,37.0
6390,1054.0,31.0
6391,1330.0,30.0
6392,1255.0,31.0
6393,904.0,30.0
6394,758.0,26.0
6395,982.0,25.0
6396,1270.0,31.0
6397,1192.0,40.0
6398,823.0,47.0
6399,663.0,49.0
6400,899.0,51.0
6401,1191.0,57.0
6402,1152.0,65.0
6403,821.0,68.0
6404,656.0,64.0
6405,871.0,55.0
6406,1203.0,47.0
6407,1135.0,37.0
6408,798.0,21.0
6409,598.0,-2.0
6410,815.0,-26.0
6411,1149.0,-43.0
6412,1120.0,-52.0
6413,796.0,-57.0
6414,607.0,-62.0
6415,805.0,-61.0
6416,1145.0,-52.0
6417,1185.0,-39.0
6418,899.0,-30.0
6419,760.0,-31.0
6420,981.0,-37.0
6421,1397.0,-42.0
6422,1475.0,-45.0
6423,1181.0,-49.0
6424,870.0,-55.0
6425,934.0,-58.0
6426,1212.0,-52.0
6427,1178.0,-37.0
6428,829.0,-19.0
6429,559.0,-1.0
6430,724.0,22.0
6431,1117.0,57.0
6432,1181.0,102.0
6433,874.0,146.0
6434,596.0,178.0
6435,706.0,192.0
6436,1032.0,186.0
6437,1140.0,154.0
6438,872.0,94.0
6439,600.0,10.0
6440,694.0,-78.0
6441,1047.0,-150.0
6442,1184.0,-191.0
6443,949.0,-200.0
6444,663.0,-185.0
6445,717.0,-152.0
6446,1053.0,-108.0
6447,1199.0,-65.0
6448,951.0,-37.0
6449,659.0,-30.0
6450,717.0,-39.0
6451,1057.0,-51.0
6452,1248.0,-57.0
6453,1047.0,-56.0
6454,756.0,-50.0
6455,792.0,-38.0
6456,1114.0,-18.0
6457,1145.0,22.0
6458,879.0,28.0
6459,908.0,23.0
6460,1266.0,16.0
6461,1522.0,14.0
6462,1345.0,16.0
6463,1000.0,19.0
6464,969.0,24.0
6465,1384.0,127.0
6466,1034.0,102.0
6467,963.0,69.0
6468,1264.0,36.0
6469,1531.0,10.0
6470,1416.0,-9.0
6471,1046.0,-27.0
6472,876.0,-43.0
6473,1119.0,-51.0
6474,1433.0,-50.0
6475,1360.0,-44.0
6476,994.0,-40.0
6477,848.0,-41.0
6478,1096.0,-41.0
6479,1385.0,-38.0
6480,1319.0,-34.0
6481,983.0,-37.0
6482,834.0,-49.0
6483,1056.0,-66.0
6484,1367.0,-80.0
6485,1304.0,-94.0
6486,969.0,-109.0
6487,883.0,-126.0
6488,1368.0,-60.0
6489,1023.0,-49.0
6490,1323.0,-57.0
6491,1359.0,-62.0
6492,1061.0,-68.0
6493,821.0,-75.0
6494,1022.0,-76.0
6495,1369.0,-65.0
6496,1418.0,-47.0
6497,1080.0,-30.0
6498,790.0,-22.0
6499,920.0,-20.0
6500,1310.0,-20.0
6501,1416.0,-19.0
6502,1111.0,-22.0
6503,863.0,-29.0
6504,959.0,-33.0
6505,1319.0,-26.0
6506,1394.0,-11.0
6507,1083.0,4.0
6508,796.0,11.0
6509,933.0,8.0
6510,1177.0,-10.0
6511,842.0,-8.0
6512,878.0,-1.0
6513,1180.0,14.0
6514,1342.0,37.0
6515,1131.0,57.0
6516,845.0,65.0
6517,879.0,60.0
6518,1223.0,51.0
6519,1388.0,41.0
6520,1170.0,29.0
6521,818.0,12.0
6522,828.0,-7.0
6523,1144.0,-22.0
6524,1343.0,-33.0
6525,1143.0,-42.0
6526,808.0,-53.0
6527,797.0,-62.0
6528,1143.0,-62.0
6529,1372.0,-49.0
6530,1208.0,-31.0
6531,896.0,-17.0
6532,935.0,-9.0
6533,1316.0,-6.0
6534,1274.0,127.0
6535,888.0,167.0
6536,749.0,194.0
6537,1048.0,206.0
6538,1334.0,201.0
6539,1230.0,172.0
6540,897.0,118.0
6541,776.0,44.0
6542,1056.0,-30.0
6543,1366.0,-88.0
6544,1291.0,-122.0
6545,953.0,-135.0
6546,806.0,-131.0
6547,1073.0,-111.0
6548,1382.0,-80.0
6549,1032.0,-31.0
6550,904.0,-27.0
6551,1113.0,-31.0
6552,1387.0,-32.0
6553,1368.0,-28.0
6554,1049.0,-22.0
6555,861.0,-15.0
6556,1075.0,-4.0
6557,1423.0,13.0
6558,1395.0,34.0
6559,1061.0,50.0
6560,859.0,58.0
6561,1413.0,69.0
6562,1440.0,76.0
6563,1119.0,76.0
6564,893.0,67.0
6565,1061.0,56.0
6566,1377.0,47.0
6567,1415.0,41.0
6568,1135.0,35.0
6569,937.0,27.0
6570,1078.0,20.0
6571,1401.0,20.0
6572,1431.0,26.0
6573,1465.0,26.0
6574,1170.0,22.0
6575,895.0,14.0
6576,1016.0,6.0
6577,1381.0,5.0
6578,1497.0,10.0
6579,1184.0,14.0
6580,880.0,12.0
6581,976.0,5.0
6582,1329.0,1.0
6583,1448.0,2.0
6584,1143.0,2.0
6585,831.0,-1.0
6586,898.0,-4.0
6587,1256.0,-3.0
6588,1397.0,3.0
6589,1146.0,8.0
6590,865.0,6.0
6591,914.0,0.0
6592,1254.0,-6.0
6593,1390.0,-10.0
6594,1138.0,-16.0
6595,836.0,-28.0
6596,875.0,-44.0
6597,1221.0,-55.0
6598,1412.0,-57.0
6599,1210.0,-56.0
6600,897.0,-56.0
6601,921.0,-54.0
6602,1228.0,-46.0
6603,1423.0,-32.0
6604,1219.0,-20.0
6605,884.0,-15.0
6606,901.0,-17.0
6607,1238.0,-21.0
6608,1444.0,-20.0
6609,1255.0,-16.0
6610,927.0,-12.0
6611,920.0,-8.0
6612,1221.0,1.0
6613,1442.0,16.0
6614,1281.0,30.0
6615,946.0,34.0
6616,1408.0,13.0
6617,1303.0,8.0
6618,979.0,-1.0
6619,875.0,-14.0
6620,1142.0,-23.0
6621,1437.0,-24.0
6622,1335.0,-17.0
6623,996.0,-10.0
6624,863.0,-4.0
6625,1122.0,2.0
6626,1490.0,11.0
6627,1430.0,20.0
6628,1058.0,20.0
6629,908.0,12.0
6630,1150.0,4.0
6631,1446.0,1.0
6632,1400.0,3.0
6633,1035.0,4.0
6634,844.0,3.0
6635,1066.0,3.0
6636,1360.0,10.0
6637,1313.0,22.0
6638,983.0,31.0
6639,822.0,35.0
6640,1029.0,37.0
6641,1356.0,41.0
6642,1345.0,43.0
6643,1011.0,37.0
6644,807.0,22.0
6645,1027.0,2.0
6646,1375.0,-15.0
6647,1362.0,-29.0
6648,1026.0,-43.0
6649,808.0,-57.0
6650,991.0,-66.0
6651,1343.0,-64.0
6652,1370.0,-53.0
6653,1071.0,-40.0
6654,877.0,-32.0
6655,1117.0,-25.0
6656,1536.0,-16.0
6657,1653.0,-7.0
6658,1414.0,-2.0
6659,1206.0,-5.0
6660,1335.0,-10.0
6661,1642.0,-12.0
6662,1691.0,-10.0
6663,1310.0,-8.0
6664,999.0,-6.0
6665,1034.0,0.0
6666,1346.0,20.0
6667,1488.0,56.0
6668,1218.0,101.0
6669,905.0,146.0
6670,972.0,188.0
6671,1281.0,223.0
6672,1430.0,243.0
6673,1176.0,235.0
6674,899.0,194.0
6675,976.0,125.0
6676,1290.0,43.0
6677,1452.0,-35.0
6678,1199.0,-104.0
6679,902.0,-157.0
6680,950.0,-188.0
6681,1302.0,-193.0
6682,1458.0,-176.0
6683,1229.0,-151.0
6684,927.0,-129.0
6685,982.0,-114.0
6686,1305.0,-103.0
6687,1491.0,-92.0
6688,1289.0,-84.0
6689,979.0,-81.0
6690,1006.0,-78.0
6691,1323.0,-70.0
6692,1522.0,-53.0
6693,1280.0,-35.0
6694,958.0,-20.0
6695,953.0,-9.0
6696,1287.0,2.0
6697,1514.0,16.0
6698,1319.0,29.0
6699,982.0,36.0
6700,952.0,38.0
6701,1292.0,40.0
6702,1533.0,45.0
6703,1367.0,47.0
6704,1025.0,41.0
6705,977.0,27.0
6706,1272.0,14.0
6707,1516.0,6.0
6708,1385.0,2.0
6709,1031.0,-2.0
6710,965.0,-8.0
6711,1253.0,-8.0
6712,1493.0,0.0
6713,1356.0,10.0
6714,1002.0,16.0
6715,912.0,16.0
6716,1169.0,15.0
6717,1458.0,17.0
6718,1380.0,18.0
6719,1043.0,13.0
6720,893.0,4.0
6721,1147.0,-3.0
6722,1418.0,-5.0
6723,1303.0,-5.0
6724,962.0,-9.0
6725,835.0,-18.0
6726,1093.0,-27.0
6727,1392.0,-32.0
6728,1311.0,-31.0
6729,960.0,-31.0
6730,818.0,-33.0
6731,1051.0,-32.0
6732,1348.0,-28.0
6733,1323.0,-23.0
6734,1001.0,-25.0
6735,819.0,-35.0
6736,1054.0,-47.0
6737,1377.0,-54.0
6738,1354.0,-55.0
6739,1016.0,-54.0
6740,809.0,-53.0
6741,990.0,-50.0
6742,1327.0,-40.0
6743,1337.0,-27.0
6744,1000.0,-18.0
6745,784.0,-14.0
6746,961.0,-12.0
6747,1310.0,-5.0
6748,1361.0,4.0
6749,1052.0,12.0
6750,796.0,14.0
6751,948.0,12.0
6752,1253.0,12.0
6753,1279.0,13.0
6754,996.0,9.0
6755,750.0,0.0
6756,887.0,-8.0
6757,1220.0,-10.0
6758,1283.0,-4.0
6759,973.0,4.0
6760,747.0,10.0
6761,864.0,13.0
6762,1175.0,18.0
6763,1299.0,21.0
6764,1020.0,18.0
6765,744.0,5.0
6766,820.0,-10.0
6767,1179.0,-22.0
6768,1320.0,-25.0
6769,1063.0,-24.0
6770,784.0,-23.0
6771,856.0,-20.0
6772,1155.0,-12.0
6773,1281.0,0.0
6774,1073.0,9.0
6775,818.0,13.0
6776,895.0,12.0
6777,1226.0,12.0
6778,1400.0,18.0
6779,1168.0,24.0
6780,875.0,28.0
6781,917.0,30.0
6782,1255.0,34.0
6783,1445.0,42.0
6784,1231.0,47.0
6785,912.0,47.0
6786,917.0,44.0
6787,1269.0,46.0
6788,1488.0,57.0
6789,1287.0,72.0
6790,943.0,84.0
6791,916.0,92.0
6792,1239.0,100.0
6793,1412.0,108.0
6794,1216.0,112.0
6795,866.0,108.0
6796,833.0,97.0
6797,1165.0,88.0
6798,1420.0,85.0
6799,1239.0,85.0
6800,900.0,83.0
6801,840.0,77.0
6802,1164.0,71.0
6803,1440.0,66.0
6804,1298.0,57.0
6805,939.0,38.0
6806,859.0,11.0
6807,1152.0,-13.0
6808,1400.0,-28.0
6809,1290.0,-34.0
6810,951.0,-37.0
6811,878.0,-37.0
6812,1154.0,-30.0
6813,1427.0,-16.0
6814,1388.0,0.0
6815,1104.0,9.0
6816,1025.0,11.0
6817,1374.0,9.0
6818,1741.0,8.0
6819,1737.0,7.0
6820,897.0,228.0
6821,1104.0,247.0
6822,1424.0,244.0
6823,1425.0,213.0
6824,1123.0,151.0
6825,940.0,67.0
6826,1142.0,-19.0
6827,1457.0,-87.0
6828,1445.0,-127.0
6829,1122.0,-140.0
6830,918.0,-134.0
6831,1131.0,-114.0
6832,1479.0,-86.0
6833,1515.0,-62.0
6834,1216.0,-53.0
6835,1087.0,-77.0
6836,1451.0,-91.0
6837,1539.0,-99.0
6838,1227.0,-103.0
6839,988.0,-106.0
6840,1140.0,-104.0
6841,1506.0,-93.0
6842,1573.0,-75.0
6843,1276.0,-58.0
6844,1018.0,-48.0
6845,1139.0,-43.0
6846,1481.0,-38.0
6847,1591.0,-31.0
6848,1289.0,-29.0
6849,1033.0,-32.0
6850,1175.0,-36.0
6851,1522.0,-34.0
6852,1638.0,-25.0
6853,1326.0,-16.0
6854,1034.0,-12.0
6855,1423.0,-16.0
6856,1600.0,-21.0
6857,1384.0,-31.0
6858,1050.0,-46.0
6859,1056.0,-63.0
6860,1362.0,-72.0
6861,1556.0,-69.0
6862,1322.0,-61.0
6863,978.0,-54.0
6864,964.0,-49.0
6865,1274.0,-43.0
6866,1488.0,-35.0
6867,1319.0,-31.0
6868,971.0,-36.0
6869,942.0,-47.0
6870,1279.0,-58.0
6871,1509.0,-64.0
6872,1367.0,-69.0
6873,1019.0,-79.0
6874,961.0,-93.0
6875,1258.0,-105.0
6876,1497.0,-111.0
6877,1340.0,-113.0
6878,997.0,-116.0
6879,932.0,-119.0
6880,1238.0,-116.0
6881,1373.0,-88.0
6882,993.0,-75.0
6883,920.0,-66.0
6884,1224.0,-59.0
6885,1509.0,-50.0
6886,1367.0,-44.0
6887,1023.0,-46.0
6888,933.0,-53.0
6889,1228.0,-59.0
6890,1491.0,-56.0
6891,1386.0,-48.0
6892,1005.0,-41.0
6893,873.0,-36.0
6894,1168.0,-29.0
6895,1489.0,-19.0
6896,1467.0,-9.0
6897,1116.0,-4.0
6898,957.0,-6.0
6899,1163.0,-7.0
6900,1459.0,-3.0
6901,1443.0,3.0
6902,1104.0,5.0
6903,936.0,0.0
6904,1462.0,0.0
6905,1132.0,8.0
6906,919.0,16.0
6907,1097.0,25.0
6908,1436.0,38.0
6909,1443.0,52.0
6910,1119.0,57.0
6911,936.0,51.0
6912,1118.0,41.0
6913,1457.0,35.0
6914,1478.0,35.0
6915,1175.0,36.0
6916,922.0,34.0
6917,1088.0,32.0
6918,1405.0,33.0
6919,1504.0,35.0
6920,1219.0,34.0
6921,977.0,27.0
6922,1089.0,20.0
6923,1129.0,49.0
6924,854.0,48.0
6925,934.0,42.0
6926,1281.0,37.0
6927,1422.0,33.0
6928,1166.0,26.0
6929,862.0,12.0
6930,926.0,-6.0
6931,1272.0,-21.0
6932,1416.0,-31.0
6933,1177.0,-37.0
6934,886.0,-43.0
6935,943.0,-47.0
6936,1340.0,-43.0
6937,1567.0,-31.0
6938,1358.0,-17.0
6939,1049.0,-9.0
6940,1107.0,-6.0
6941,1571.0,-2.0
6942,1851.0,3.0
6943,1584.0,6.0
6944,1139.0,4.0
6945,1011.0,1.0
6946,1197.0,6.0
6947,826.0,0.0
6948,753.0,-97.0
6949,1056.0,-172.0
6950,1326.0,-209.0
6951,1200.0,-210.0
6952,871.0,-190.0
6953,802.0,-162.0
6954,1085.0,-134.0
6955,1364.0,-111.0
6956,1291.0,-99.0
6957,978.0,-101.0
6958,865.0,-111.0
6959,1115.0,-117.0
6960,1426.0,-109.0
6961,989.0,-62.0
6962,846.0,-36.0
6963,1132.0,-9.0
6964,1444.0,19.0
6965,1391.0,45.0
6966,1059.0,62.0
6967,891.0,71.0
6968,1109.0,78.0
6969,1156.0,84.0
6970,952.0,75.0
6971,1136.0,64.0
6972,1453.0,57.0
6973,1476.0,55.0
6974,1196.0,53.0
