sample,raw,filtered
0,974.0,-1604.0
1,655.0,-1456.0
2,481.0,-1215.0
3,857.0,-915.0
4,1239.0,-600.0
5,1032.0,-322.0
6,742.0,-126.0
7,631.0,-30.0
8,991.0,-28.0
9,1512.0,-107.0
10,1751.0,-262.0
11,1654.0,-483.0
12,1657.0,-739.0
13,2017.0,-983.0
14,2223.0,-1175.0
15,2228.0,-1061.0
16,2231.0,-943.0
17,2228.0,-826.0
18,2223.0,-708.0
19,2223.0,-600.0
20,2228.0,-522.0
21,2229.0,-492.0
22,2223.0,-510.0
23,2228.0,-559.0
24,2224.0,-616.0
25,2221.0,-662.0
26,2232.0,-683.0
27,1888.0,-667.0
28,1323.0,-604.0
29,1151.0,-491.0
30,1078.0,-334.0
31,971.0,-142.0
32,849.0,68.0
33,1118.0,278.0
34,1690.0,473.0
35,2227.0,787.0
36,2223.0,738.0
37,2229.0,596.0
38,2232.0,376.0
39,2229.0,107.0
40,2227.0,-159.0
41,2232.0,-359.0
42,2238.0,-432.0
43,2225.0,-345.0
44,2227.0,-112.0
45,2225.0,210.0
46,2222.0,543.0
47,2222.0,805.0
48,2229.0,933.0
49,2230.0,894.0
50,2223.0,695.0
51,2233.0,381.0
52,2231.0,16.0
53,2227.0,-332.0
54,2229.0,-612.0
55,2230.0,-787.0
56,2227.0,-840.0
57,2230.0,-773.0
58,2229.0,-604.0
59,2227.0,-369.0
60,2226.0,-108.0
61,2033.0,138.0
62,1546.0,338.0
63,1225.0,473.0
64,1104.0,539.0
65,1104.0,547.0
66,1124.0,515.0
67,1147.0,463.0
68,1158.0,407.0
69,2230.0,187.0
70,2234.0,61.0
71,2229.0,-109.0
72,2085.0,-307.0
73,1584.0,-500.0
74,1232.0,-654.0
75,1096.0,-734.0
76,1079.0,-708.0
77,1099.0,-562.0
78,1114.0,-313.0
79,1137.0,0.0
80,1131.0,319.0
81,1128.0,579.0
82,1118.0,719.0
83,1124.0,687.0
84,1134.0,463.0
85,1132.0,73.0
86,1062.0,-412.0
87,804.0,-896.0
88,595.0,-1284.0
89,717.0,-1505.0
90,850.0,-1528.0
91,90.0,-1362.0
92,-24.0,-294.0
93,-22.0,28.0
94,-19.0,248.0
95,-16.0,340.0
96,-22.0,304.0
97,-23.0,162.0
98,691.0,-55.0
99,2225.0,-315.0
100,2230.0,-580.0
101,2228.0,-811.0
102,2228.0,-974.0
103,2227.0,-1053.0
104,2235.0,-1048.0
105,2233.0,-976.0
106,2229.0,-851.0
107,2227.0,-672.0
108,2224.0,-428.0
109,2219.0,-107.0
110,1960.0,279.0
111,1485.0,693.0
112,1258.0,1075.0
113,1149.0,1422.0
114,1172.0,1185.0
115,1212.0,838.0
116,1216.0,472.0
117,1253.0,169.0
118,1997.0,-28.0
119,2220.0,-116.0
120,2227.0,-107.0
121,2223.0,-20.0
122,2223.0,133.0
123,2227.0,342.0
124,2221.0,595.0
125,1864.0,874.0
126,1335.0,1160.0
127,1027.0,1435.0
128,980.0,1687.0
129,1035.0,1905.0
130,1110.0,2077.0
131,1135.0,2189.0
132,1131.0,2225.0
133,1118.0,2170.0
134,1129.0,2004.0
135,1176.0,1302.0
136,1174.0,812.0
137,2232.0,306.0
138,2226.0,-141.0
139,2117.0,-467.0
140,1675.0,-628.0
141,1322.0,-609.0
142,1182.0,-429.0
143,1238.0,-139.0
144,1383.0,191.0
145,1448.0,501.0
146,1397.0,755.0
147,1344.0,948.0
148,1290.0,1079.0
149,1355.0,1140.0
150,1483.0,1109.0
151,1373.0,967.0
152,1179.0,713.0
153,1097.0,373.0
154,1141.0,-4.0
155,1001.0,-353.0
156,947.0,-408.0
157,1032.0,-700.0
158,1089.0,-922.0
159,1065.0,-1011.0
160,1031.0,-938.0
161,1047.0,-714.0
162,1103.0,-394.0
163,1924.0,-60.0
164,1856.0,208.0
165,-25.0,355.0
166,-33.0,363.0
167,-21.0,250.0
168,-26.0,58.0
169,-25.0,-169.0
170,-23.0,-633.0
171,-25.0,-604.0
172,-20.0,-499.0
173,-21.0,-380.0
174,-16.0,-307.0
175,64.0,-315.0
176,577.0,-405.0
177,952.0,-552.0
178,1103.0,-705.0
179,1119.0,-801.0
180,1128.0,-790.0
181,1116.0,-661.0
182,1100.0,-452.0
183,1073.0,-222.0
184,1079.0,-19.0
185,1535.0,140.0
186,2227.0,263.0
187,2044.0,362.0
188,-23.0,444.0
189,-18.0,504.0
190,-16.0,528.0
191,1055.0,137.0
192,1151.0,33.0
193,1163.0,2.0
194,1142.0,27.0
195,1111.0,52.0
196,1098.0,20.0
197,1115.0,-90.0
198,1096.0,-260.0
199,1043.0,-430.0
200,1051.0,-519.0
201,1089.0,-451.0
202,1124.0,-193.0
203,1199.0,217.0
204,550.0,685.0
205,286.0,1098.0
206,607.0,1371.0
207,897.0,1467.0
208,1031.0,1394.0
209,1098.0,1193.0
210,1118.0,916.0
211,1119.0,618.0
212,1125.0,338.0
213,1163.0,96.0
214,1202.0,-98.0
215,1284.0,-237.0
216,1256.0,-301.0
217,1199.0,-218.0
218,1166.0,-75.0
219,1133.0,107.0
220,1111.0,302.0
221,1145.0,477.0
222,1989.0,601.0
223,2223.0,655.0
224,2221.0,638.0
225,1708.0,568.0
226,1513.0,465.0
227,-18.0,347.0
228,-23.0,222.0
229,-20.0,94.0
230,-22.0,-21.0
231,-22.0,-97.0
232,-22.0,-97.0
233,24.0,1.0
234,1152.0,185.0
235,1939.0,394.0
236,2121.0,1035.0
237,1748.0,1473.0
238,1437.0,1287.0
239,1437.0,793.0
240,1414.0,237.0
241,1415.0,-270.0
242,1719.0,-648.0
243,2119.0,-856.0
244,2222.0,-901.0
245,2063.0,-823.0
246,2225.0,-671.0
247,2232.0,-493.0
248,2233.0,-324.0
249,2225.0,-186.0
250,2230.0,-82.0
251,2231.0,-1.0
252,2231.0,81.0
253,2228.0,184.0
254,2223.0,310.0
255,2233.0,441.0
256,2229.0,554.0
257,2228.0,621.0
258,2227.0,623.0
259,2228.0,549.0
260,2233.0,401.0
261,2230.0,200.0
262,2227.0,-19.0
263,2228.0,-227.0
264,2228.0,-397.0
265,2237.0,-513.0
266,2230.0,-571.0
267,2228.0,-573.0
268,2232.0,-530.0
269,2232.0,-457.0
270,2230.0,-372.0
271,2226.0,-186.0
272,2234.0,-170.0
273,2226.0,-177.0
274,2232.0,-199.0
275,2233.0,-231.0
276,2227.0,-266.0
277,2228.0,-300.0
278,2230.0,-331.0
279,2220.0,-358.0
280,2228.0,-382.0
281,2231.0,-402.0
282,2228.0,-419.0
283,2224.0,-433.0
284,2232.0,-446.0
285,2235.0,-456.0
286,2227.0,-464.0
287,2226.0,-472.0
288,2230.0,-479.0
289,2229.0,-485.0
290,2221.0,-490.0
291,2096.0,-495.0
292,1604.0,-498.0
293,1074.0,-499.0
294,1128.0,-496.0
295,1548.0,-492.0
296,2093.0,-484.0
297,2219.0,-472.0
298,2226.0,-461.0
299,2226.0,-465.0
300,2232.0,-504.0
301,2225.0,-594.0
302,2221.0,-735.0
303,2224.0,-908.0
304,2224.0,-1067.0
305,2228.0,-1158.0
306,2226.0,-1131.0
307,2230.0,-968.0
308,2228.0,-692.0
309,2226.0,-359.0
310,2227.0,-43.0
311,2227.0,188.0
312,2218.0,292.0
313,2221.0,262.0
314,2223.0,124.0
315,2225.0,-287.0
316,1871.0,-472.0
317,-23.0,-604.0
318,-21.0,-670.0
319,-23.0,-666.0
320,-21.0,-598.0
321,-27.0,-480.0
322,-20.0,-331.0
323,-21.0,-169.0
324,-20.0,-13.0
325,-23.0,102.0
326,-26.0,127.0
327,-25.0,21.0
328,-24.0,-222.0
329,-24.0,-568.0
330,-22.0,-944.0
331,-29.0,-1269.0
332,-25.0,-1468.0
333,-16.0,-1490.0
334,-21.0,-1327.0
335,-24.0,-1025.0
336,-28.0,-667.0
337,-19.0,-333.0
338,-23.0,-81.0
339,-22.0,66.0
340,-22.0,110.0
341,-23.0,65.0
342,-27.0,-46.0
343,347.0,-198.0
344,839.0,-365.0
345,1100.0,-517.0
346,1167.0,-632.0
347,1159.0,-692.0
348,1169.0,-693.0
349,1189.0,-643.0
350,1193.0,-560.0
351,1191.0,-461.0
352,1157.0,-351.0
353,1193.0,-221.0
354,2232.0,-56.0
355,2227.0,149.0
356,2224.0,388.0
357,2219.0,636.0
358,1865.0,859.0
359,1497.0,1021.0
360,1122.0,979.0
361,1119.0,866.0
362,1146.0,798.0
363,1124.0,816.0
364,1027.0,925.0
365,981.0,1092.0
366,968.0,1262.0
367,1016.0,1375.0
368,1033.0,1383.0
369,1010.0,1274.0
370,953.0,1073.0
371,293.0,836.0
372,-29.0,626.0
373,-27.0,488.0
374,-21.0,443.0
375,-27.0,482.0
376,-23.0,579.0
377,-23.0,707.0
378,-20.0,839.0
379,-26.0,950.0
380,440.0,1010.0
381,897.0,991.0
382,1140.0,876.0
383,1185.0,673.0
384,1124.0,411.0
385,1034.0,136.0
386,1024.0,-99.0
387,1050.0,-256.0
388,1097.0,-311.0
389,1106.0,-261.0
390,1120.0,-117.0
391,1129.0,93.0
392,1207.0,344.0
393,827.0,596.0
394,332.0,812.0
395,553.0,954.0
396,880.0,992.0
397,1072.0,918.0
398,1132.0,744.0
399,1119.0,512.0
400,1108.0,276.0
401,1129.0,84.0
402,1151.0,-43.0
403,1141.0,-117.0
404,1106.0,-159.0
405,1100.0,-179.0
406,1216.0,-124.0
407,1321.0,-28.0
408,1368.0,112.0
409,1262.0,283.0
410,1686.0,457.0
411,2156.0,597.0
412,2228.0,672.0
413,2221.0,671.0
414,2229.0,606.0
415,2207.0,507.0
416,2221.0,399.0
417,2230.0,304.0
418,2236.0,231.0
419,2229.0,192.0
420,2221.0,200.0
421,2224.0,263.0
422,2229.0,378.0
423,2229.0,523.0
424,2235.0,668.0
425,2230.0,778.0
426,2229.0,828.0
427,2228.0,803.0
428,2227.0,707.0
429,2231.0,255.0
430,2230.0,146.0
431,2233.0,82.0
432,2230.0,58.0
433,2232.0,66.0
434,2236.0,95.0
435,2232.0,134.0
436,2231.0,174.0
437,2227.0,204.0
438,2228.0,218.0
439,2225.0,211.0
440,2232.0,185.0
441,2226.0,143.0
442,2230.0,-16.0
443,2230.0,-67.0
444,2232.0,-113.0
445,2232.0,-156.0
446,2223.0,-195.0
447,2229.0,-231.0
448,2233.0,-265.0
449,2223.0,-297.0
450,2223.0,-326.0
451,2228.0,-354.0
452,2227.0,-379.0
453,2222.0,-402.0
454,2228.0,-423.0
455,2229.0,-442.0
456,2226.0,-460.0
457,2233.0,-477.0
458,2223.0,-493.0
459,2237.0,-508.0
460,2228.0,-522.0
461,2219.0,-535.0
462,2134.0,-546.0
463,1085.0,-571.0
464,1033.0,-575.0
465,1040.0,-578.0
466,524.0,-579.0
467,-23.0,-576.0
468,-18.0,-569.0
469,-16.0,-561.0
470,-25.0,-567.0
471,-17.0,-605.0
472,-20.0,-689.0
473,-23.0,-820.0
474,383.0,-983.0
475,864.0,-1162.0
476,1121.0,-1342.0
477,1189.0,-1506.0
478,1151.0,-1636.0
479,1126.0,-1717.0
480,1117.0,-1740.0
481,1126.0,-1709.0
482,1136.0,-1627.0
483,1120.0,-1490.0
484,1116.0,-1292.0
485,1286.0,-474.0
486,1183.0,-234.0
487,588.0,-66.0
488,258.0,6.0
489,987.0,-21.0
490,2223.0,-139.0
491,2226.0,-317.0
492,2223.0,-508.0
493,2222.0,-665.0
494,2222.0,-755.0
495,2228.0,-769.0
496,2221.0,-730.0
497,2223.0,-670.0
498,2231.0,-603.0
499,2228.0,-508.0
500,2230.0,-352.0
501,2231.0,-117.0
502,2228.0,190.0
503,2229.0,536.0
504,2229.0,872.0
505,2223.0,1138.0
506,2232.0,1279.0
507,2227.0,1136.0
508,2233.0,931.0
509,2234.0,718.0
510,2221.0,541.0
511,2230.0,421.0
512,2228.0,361.0
513,2224.0,352.0
514,2233.0,387.0
515,2230.0,452.0
516,2226.0,535.0
517,2230.0,620.0
518,2220.0,693.0
519,2233.0,739.0
520,2230.0,754.0
521,2232.0,739.0
522,2227.0,702.0
523,2226.0,652.0
524,2234.0,598.0
525,2227.0,546.0
526,2230.0,499.0
527,2232.0,457.0
528,2223.0,420.0
529,2220.0,386.0
530,2223.0,356.0
531,2221.0,327.0
532,2224.0,299.0
533,2182.0,272.0
534,1743.0,246.0
535,1415.0,222.0
536,846.0,198.0
537,265.0,175.0
538,258.0,153.0
539,895.0,132.0
540,1266.0,114.0
541,855.0,100.0
542,21.0,91.0
543,-16.0,77.0
544,153.0,39.0
545,423.0,-50.0
546,125.0,-218.0
547,-20.0,-460.0
548,-27.0,-737.0
549,-25.0,-981.0
550,-23.0,-1137.0
551,-26.0,-1179.0
552,-17.0,-1120.0
553,-23.0,-993.0
554,-17.0,-838.0
555,-20.0,-701.0
556,-26.0,-616.0
557,-29.0,-590.0
558,-20.0,-600.0
559,-21.0,-615.0
560,-16.0,-619.0
561,-23.0,-615.0
562,-24.0,-611.0
563,-20.0,-605.0
564,-20.0,-504.0
565,-27.0,-445.0
566,-22.0,-386.0
567,-22.0,-335.0
568,-20.0,-294.0
569,-21.0,-260.0
570,-23.0,-228.0
571,-23.0,-193.0
572,-22.0,-156.0
573,-21.0,-115.0
574,-22.0,-73.0
575,-22.0,-29.0
576,-15.0,14.0
577,-22.0,58.0
578,-23.0,102.0
579,-22.0,143.0
580,-27.0,182.0
581,-23.0,218.0
582,-28.0,252.0
583,-14.0,282.0
584,-24.0,311.0
585,-15.0,338.0
586,-19.0,363.0
587,-25.0,386.0
588,-19.0,407.0
589,-33.0,427.0
590,-22.0,444.0
591,-23.0,460.0
592,-28.0,474.0
593,-24.0,486.0
594,-24.0,498.0
595,-23.0,509.0
596,-22.0,520.0
597,-16.0,529.0
598,-15.0,537.0
599,-19.0,542.0
600,-16.0,546.0
601,-27.0,548.0
602,-28.0,548.0
603,-19.0,548.0
604,-27.0,547.0
605,-24.0,547.0
606,-23.0,546.0
607,-20.0,545.0
608,-16.0,543.0
609,-21.0,541.0
610,-23.0,526.0
611,-29.0,518.0
612,-25.0,508.0
613,-26.0,497.0
614,-23.0,487.0
615,-22.0,477.0
616,-23.0,468.0
617,-21.0,459.0
618,-23.0,450.0
619,-23.0,441.0
620,-22.0,431.0
621,-30.0,420.0
622,-25.0,407.0
623,-25.0,394.0
624,-20.0,381.0
625,-22.0,206.0
626,-24.0,194.0
627,-23.0,202.0
628,-22.0,289.0
629,-23.0,339.0
630,-28.0,363.0
631,-29.0,346.0
632,-25.0,284.0
633,-25.0,185.0
634,-21.0,67.0
635,-27.0,-41.0
636,-23.0,-116.0
637,-21.0,-143.0
638,-22.0,-131.0
639,-22.0,-95.0
640,-24.0,-53.0
641,-32.0,-16.0
642,-22.0,9.0
643,-21.0,24.0
644,404.0,27.0
645,2226.0,19.0
646,2225.0,1.0
647,2223.0,-23.0
648,2228.0,-50.0
649,2222.0,-77.0
650,2219.0,-101.0
651,2227.0,-161.0
652,2231.0,-176.0
653,2230.0,-133.0
654,2227.0,10.0
655,2227.0,271.0
656,2233.0,620.0
657,2228.0,993.0
658,2225.0,1314.0
659,2231.0,1508.0
660,-21.0,1524.0
661,-21.0,1355.0
662,-19.0,316.0
663,-25.0,34.0
664,-22.0,-147.0
665,-24.0,-226.0
666,-22.0,-235.0
667,-25.0,-238.0
668,-20.0,-304.0
669,-22.0,-476.0
670,-25.0,-750.0
671,-22.0,-1082.0
672,-21.0,-1404.0
673,-16.0,-1639.0
674,-27.0,-1723.0
675,-33.0,-1057.0
676,-23.0,-731.0
677,-20.0,-465.0
678,-16.0,-285.0
679,-25.0,-194.0
680,-25.0,-178.0
681,-21.0,-216.0
682,162.0,-291.0
683,681.0,-383.0
684,1021.0,-473.0
685,1140.0,-545.0
686,1141.0,-590.0
687,1120.0,-604.0
688,-23.0,-592.0
689,-27.0,-566.0
690,-25.0,-535.0
691,-24.0,-500.0
692,-21.0,-449.0
693,-22.0,-364.0
694,-19.0,-226.0
695,-27.0,-37.0
696,-23.0,174.0
697,-16.0,354.0
698,-26.0,439.0
699,-24.0,387.0
700,-23.0,194.0
701,-22.0,-98.0
702,-21.0,-424.0
703,-26.0,-703.0
704,-21.0,-875.0
705,-23.0,-908.0
706,-21.0,-818.0
707,-26.0,-647.0
708,-24.0,-448.0
709,-22.0,-261.0
710,-24.0,-110.0
711,-25.0,-3.0
712,-20.0,57.0
713,-16.0,78.0
714,-25.0,66.0
715,-23.0,32.0
716,-27.0,-10.0
717,-27.0,-50.0
718,-19.0,-78.0
719,-24.0,-91.0
720,-20.0,-88.0
721,-24.0,-75.0
722,-22.0,-56.0
723,-23.0,-36.0
724,-20.0,-17.0
725,-22.0,-1.0
726,-21.0,11.0
727,-24.0,22.0
728,-25.0,31.0
729,-22.0,40.0
730,-20.0,48.0
731,-23.0,55.0
732,-22.0,63.0
733,-18.0,71.0
734,-28.0,79.0
735,-25.0,86.0
736,-22.0,92.0
737,-23.0,98.0
738,-24.0,103.0
739,-27.0,108.0
740,-22.0,113.0
741,-27.0,117.0
742,-18.0,121.0
743,-20.0,125.0
744,-26.0,129.0
745,-20.0,132.0
746,-22.0,135.0
747,-18.0,138.0
748,-25.0,140.0
749,-24.0,142.0
750,-26.0,144.0
751,-16.0,146.0
752,-22.0,148.0
753,-19.0,150.0
754,-24.0,152.0
755,-20.0,154.0
756,-27.0,155.0
757,-23.0,156.0
758,-18.0,157.0
759,-22.0,156.0
760,-24.0,156.0
761,-29.0,155.0
762,-23.0,154.0
763,-24.0,153.0
764,-24.0,153.0
765,-21.0,152.0
766,-14.0,151.0
767,-21.0,150.0
768,-27.0,149.0
769,-33.0,147.0
770,-22.0,145.0
771,-26.0,143.0
772,-25.0,141.0
773,-24.0,139.0
774,-24.0,137.0
775,-25.0,135.0
776,-17.0,134.0
777,-22.0,132.0
778,-23.0,131.0
779,-22.0,129.0
780,-25.0,126.0
781,-21.0,123.0
782,-22.0,119.0
783,-25.0,115.0
784,-20.0,112.0
785,-23.0,109.0
786,-23.0,108.0
787,-16.0,106.0
788,-25.0,105.0
789,-20.0,103.0
790,-21.0,101.0
791,-25.0,98.0
792,-20.0,95.0
793,-23.0,87.0
794,-18.0,84.0
795,-20.0,81.0
796,-21.0,78.0
797,-28.0,76.0
798,-19.0,73.0
799,-29.0,71.0
800,-20.0,68.0
801,-29.0,65.0
802,-19.0,62.0
803,-26.0,59.0
804,-24.0,56.0
805,-23.0,53.0
806,-25.0,51.0
807,-21.0,48.0
808,-21.0,45.0
809,-24.0,43.0
810,-24.0,40.0
811,-24.0,37.0
812,-25.0,34.0
813,-16.0,31.0
814,-27.0,28.0
815,-25.0,26.0
816,-18.0,21.0
817,-24.0,19.0
818,-26.0,17.0
819,-24.0,15.0
820,-19.0,13.0
821,-19.0,11.0
822,-24.0,9.0
823,-24.0,7.0
824,-26.0,4.0
825,-25.0,2.0
826,-18.0,1.0
827,-21.0,0.0
828,-21.0,-2.0
829,-20.0,-3.0
830,-18.0,-7.0
831,-23.0,-8.0
832,-21.0,-9.0
833,-18.0,-11.0
834,-18.0,-12.0
835,-25.0,-14.0
836,-23.0,-15.0
837,-25.0,-16.0
838,-18.0,-16.0
839,-22.0,-16.0
840,-15.0,-17.0
841,-23.0,-18.0
842,-25.0,-19.0
843,-27.0,-20.0
844,-20.0,-21.0
845,-20.0,-22.0
846,-25.0,-24.0
847,-22.0,-25.0
848,-20.0,-26.0
849,-20.0,-27.0
850,-27.0,-27.0
851,-20.0,-28.0
852,-18.0,-28.0
853,-24.0,-28.0
854,-25.0,-29.0
855,-22.0,-29.0
856,-20.0,-30.0
857,-20.0,-31.0
858,-22.0,-31.0
859,-23.0,-31.0
860,-24.0,-31.0
861,-23.0,-31.0
862,-25.0,-31.0
863,-29.0,-31.0
864,-27.0,-32.0
865,-25.0,-32.0
866,-19.0,-32.0
867,-25.0,-32.0
868,-24.0,-32.0
869,-25.0,-32.0
870,-22.0,-33.0
871,-21.0,-33.0
872,-24.0,-33.0
873,-22.0,-34.0
874,-23.0,-33.0
875,-19.0,-33.0
876,-23.0,-32.0
877,-21.0,-31.0
878,-25.0,-31.0
879,-25.0,-30.0
880,-26.0,-30.0
881,-23.0,-30.0
882,-21.0,-26.0
883,-23.0,-26.0
884,-26.0,-25.0
885,-22.0,-24.0
886,-20.0,-23.0
887,-18.0,-22.0
888,-29.0,-22.0
889,-19.0,-21.0
890,-25.0,-20.0
891,-27.0,-20.0
892,-21.0,-19.0
893,-20.0,-18.0
894,-21.0,-18.0
895,-16.0,-18.0
896,-21.0,-18.0
897,-29.0,-16.0
898,-23.0,-15.0
899,-26.0,-15.0
900,-23.0,-15.0
901,-22.0,-14.0
902,-26.0,-13.0
903,-24.0,-12.0
904,-25.0,-10.0
905,-23.0,-9.0
906,-21.0,-9.0
907,-24.0,-9.0
908,-26.0,-10.0
909,-20.0,-11.0
910,-25.0,-11.0
911,-24.0,-12.0
912,-23.0,-11.0
913,-20.0,-11.0
914,-21.0,-10.0
915,-24.0,-8.0
916,-27.0,-7.0
917,-20.0,-6.0
918,-24.0,-5.0
919,-25.0,-4.0
920,-22.0,-4.0
921,-23.0,-4.0
922,-25.0,-3.0
923,-29.0,-3.0
924,-21.0,-3.0
925,-33.0,-2.0
926,-25.0,-2.0
927,-27.0,-2.0
928,-20.0,-2.0
929,-20.0,-1.0
930,-23.0,-1.0
931,-25.0,-1.0
932,-21.0,-1.0
933,-25.0,-1.0
934,-23.0,-1.0
935,-24.0,-1.0
936,-22.0,-1.0
937,-25.0,-1.0
938,-23.0,-1.0
939,-25.0,0.0
940,-23.0,1.0
941,-21.0,2.0
942,-25.0,4.0
943,-22.0,5.0
944,-20.0,5.0
945,-21.0,5.0
946,-24.0,4.0
947,-20.0,3.0
948,-19.0,3.0
949,-24.0,3.0
950,-23.0,3.0
951,-20.0,3.0
952,-21.0,3.0
953,-26.0,4.0
954,-27.0,4.0
955,-20.0,5.0
956,-25.0,6.0
957,-21.0,7.0
958,-25.0,5.0
959,-27.0,6.0
960,-24.0,5.0
961,-22.0,5.0
962,-21.0,5.0
963,-23.0,5.0
964,-22.0,6.0
965,-22.0,7.0
966,-24.0,8.0
967,-29.0,9.0
968,-23.0,8.0
969,-18.0,7.0
970,-23.0,6.0
971,-22.0,5.0
972,-20.0,4.0
973,-24.0,4.0
974,-25.0,5.0
975,-26.0,6.0
976,-23.0,7.0
977,-28.0,8.0
978,-30.0,7.0
979,-33.0,7.0
980,-26.0,7.0
981,-24.0,7.0
982,-25.0,4.0
983,-20.0,6.0
984,-25.0,8.0
985,-21.0,9.0
986,-28.0,9.0
987,-25.0,9.0
988,-24.0,7.0
989,-20.0,6.0
990,-22.0,5.0
991,-25.0,5.0
992,-20.0,5.0
993,-24.0,5.0
994,-27.0,6.0
995,-25.0,6.0
996,-25.0,6.0
997,-25.0,5.0
998,-20.0,5.0
999,-26.0,4.0
1000,-16.0,4.0
1001,-23.0,4.0
1002,-12.0,5.0
1003,-29.0,5.0
1004,-22.0,5.0
1005,-26.0,5.0
1006,-16.0,3.0
1007,-20.0,1.0
1008,-25.0,0.0
1009,-24.0,0.0
1010,-23.0,0.0
1011,-23.0,0.0
1012,-22.0,1.0
1013,-22.0,2.0
1014,-27.0,3.0
1015,-16.0,4.0
1016,-22.0,5.0
1017,-16.0,5.0
1018,-26.0,5.0
1019,-22.0,4.0
1020,-21.0,3.0
1021,-26.0,2.0
1022,-16.0,1.0
1023,-28.0,0.0
1024,-24.0,0.0
1025,-25.0,0.0
1026,-21.0,1.0
1027,-20.0,1.0
1028,-25.0,2.0
1029,-23.0,3.0
1030,-22.0,3.0
1031,-28.0,3.0
1032,-22.0,2.0
1033,-22.0,1.0
1034,-22.0,0.0
1035,-23.0,0.0
1036,-25.0,0.0
1037,-22.0,0.0
1038,-26.0,0.0
1039,-29.0,0.0
1040,-21.0,0.0
1041,-25.0,0.0
1042,-26.0,0.0
1043,-21.0,0.0
1044,-18.0,0.0
1045,-23.0,0.0
1046,-19.0,0.0
1047,-20.0,0.0
1048,-19.0,0.0
1049,-21.0,0.0
1050,-26.0,0.0
1051,-22.0,-1.0
1052,-25.0,-1.0
1053,-25.0,-1.0
1054,-28.0,0.0
1055,-23.0,0.0
1056,-16.0,1.0
1057,-26.0,2.0
1058,-22.0,3.0
1059,-24.0,3.0
1060,-23.0,3.0
1061,-21.0,2.0
1062,-22.0,0.0
1063,-27.0,0.0
1064,-18.0,-2.0
1065,-17.0,-3.0
1066,-20.0,-3.0
1067,-28.0,-2.0
1068,-23.0,-2.0
1069,-22.0,0.0
1070,-29.0,0.0
1071,-21.0,0.0
1072,-21.0,1.0
1073,-26.0,1.0
1074,-23.0,0.0
1075,-22.0,0.0
1076,-25.0,0.0
1077,-24.0,0.0
1078,-26.0,0.0
1079,-12.0,0.0
1080,-21.0,0.0
1081,-22.0,-1.0
1082,-23.0,-2.0
1083,-25.0,-2.0
1084,-21.0,-2.0
1085,-25.0,-1.0
1086,-24.0,-1.0
1087,-25.0,0.0
1088,-25.0,0.0
1089,-20.0,0.0
1090,-22.0,0.0
1091,-27.0,1.0
1092,-22.0,1.0
1093,-22.0,1.0
1094,-23.0,1.0
1095,-25.0,0.0
1096,-22.0,0.0
1097,-22.0,-1.0
1098,-26.0,-2.0
1099,-29.0,-2.0
1100,-17.0,-2.0
1101,-29.0,-2.0
1102,-20.0,-1.0
1103,-21.0,0.0
1104,-25.0,0.0
1105,-19.0,0.0
1106,-20.0,0.0
1107,-22.0,0.0
1108,-22.0,0.0
1109,-20.0,0.0
1110,-24.0,-1.0
1111,-21.0,-1.0
1112,-27.0,-1.0
1113,-27.0,-1.0
1114,-20.0,-1.0
1115,-20.0,0.0
1116,-23.0,0.0
1117,-21.0,1.0
1118,-20.0,1.0
1119,-21.0,1.0
1120,-19.0,1.0
1121,-25.0,0.0
1122,-22.0,0.0
1123,-26.0,-1.0
1124,-23.0,-1.0
1125,-28.0,-2.0
1126,129.0,-2.0
1127,657.0,-1.0
1128,1017.0,0.0
1129,1152.0,0.0
1130,762.0,-5.0
1131,328.0,-17.0
1132,-22.0,-30.0
1133,-25.0,-25.0
1134,-28.0,26.0
1135,-22.0,148.0
1136,-22.0,353.0
1137,-20.0,630.0
1138,-19.0,949.0
1139,-24.0,1257.0
1140,-27.0,1486.0
1141,-23.0,1569.0
1142,144.0,1461.0
1143,523.0,1154.0
1144,421.0,675.0
1145,-19.0,79.0
1146,-25.0,-564.0
1147,-22.0,-1169.0
1148,-22.0,-1651.0
1149,-21.0,-1942.0
1150,-17.0,-1998.0
1151,40.0,-1808.0
1152,622.0,-1395.0
1153,1252.0,-823.0
1154,1283.0,-192.0
1155,936.0,379.0
1156,726.0,796.0
1157,771.0,999.0
1158,1021.0,979.0
1159,857.0,767.0
1160,353.0,434.0
1161,140.0,79.0
1162,567.0,-193.0
1163,1275.0,-316.0
1164,1685.0,-271.0
1165,1757.0,-86.0
1166,1900.0,192.0
1167,2227.0,517.0
1168,2227.0,827.0
1169,2225.0,1051.0
1170,2233.0,1123.0
1171,2230.0,1020.0
1172,2231.0,768.0
1173,2232.0,429.0
1174,2222.0,81.0
1175,2231.0,-198.0
1176,2227.0,135.0
1177,2229.0,642.0
1178,2228.0,1220.0
1179,2230.0,1760.0
1180,2229.0,2160.0
1181,2223.0,2346.0
1182,2227.0,2277.0
1183,2232.0,1958.0
1184,2228.0,1445.0
1185,2229.0,830.0
1186,2232.0,220.0
1187,2228.0,-288.0
1188,2236.0,-628.0
1189,2227.0,-775.0
1190,2230.0,-747.0
1191,2225.0,-595.0
1192,2229.0,-388.0
1193,2227.0,-187.0
1194,2219.0,-35.0
1195,2232.0,49.0
1196,2226.0,66.0
1197,2235.0,30.0
1198,2227.0,-39.0
1199,2232.0,-125.0
1200,2215.0,-212.0
1201,2223.0,-292.0
1202,1502.0,-361.0
1203,375.0,-420.0
1204,-21.0,-470.0
1205,-20.0,-513.0
1206,-25.0,-551.0
1207,-24.0,-585.0
1208,-24.0,-611.0
1209,-23.0,-624.0
1210,-22.0,-625.0
1211,-24.0,-638.0
1212,-25.0,-711.0
1213,-23.0,-899.0
1214,-20.0,-1232.0
1215,-20.0,-1705.0
1216,-21.0,-2276.0
1217,-25.0,-2877.0
1218,-26.0,-3426.0
1219,-23.0,-3840.0
1220,-23.0,-3775.0
1221,-27.0,-3314.0
1222,-19.0,-2690.0
1223,-22.0,-1966.0
1224,-23.0,-1229.0
1225,-22.0,-581.0
1226,-20.0,-111.0
1227,-21.0,122.0
1228,-25.0,117.0
1229,-27.0,-79.0
1230,-26.0,-383.0
1231,-25.0,-701.0
1232,-16.0,-952.0
1233,-25.0,-1095.0
1234,-20.0,-1122.0
1235,-21.0,-1055.0
1236,-22.0,-930.0
1237,-26.0,-780.0
1238,-20.0,-630.0
1239,-23.0,-493.0
1240,-29.0,-376.0
1241,-26.0,-276.0
1242,-25.0,-190.0
1243,-29.0,-114.0
1244,-22.0,-43.0
1245,-23.0,23.0
1246,-21.0,88.0
1247,-18.0,151.0
1248,-24.0,212.0
1249,26.0,270.0
1250,518.0,325.0
1251,936.0,376.0
1252,1123.0,423.0
1253,1171.0,467.0
1254,1161.0,508.0
1255,1140.0,545.0
1256,1115.0,577.0
1257,1037.0,602.0
1258,1246.0,623.0
1259,1685.0,655.0
1260,2007.0,723.0
1261,1651.0,852.0
1262,768.0,1055.0
1263,367.0,1324.0
1264,937.0,1635.0
1265,1419.0,1948.0
1266,1311.0,2216.0
1267,1217.0,2405.0
1268,1431.0,2505.0
1269,2227.0,2528.0
1270,2227.0,2481.0
1271,2223.0,2346.0
1272,2228.0,2102.0
1273,2232.0,1752.0
1274,2232.0,1336.0
1275,2228.0,913.0
1276,2230.0,544.0
1277,2223.0,204.0
1278,2226.0,304.0
1279,2224.0,567.0
1280,2227.0,930.0
1281,2227.0,1332.0
1282,2219.0,1731.0
1283,2222.0,2099.0
1284,2230.0,2399.0
1285,2230.0,2580.0
1286,2224.0,2599.0
1287,2227.0,2433.0
1288,2229.0,2095.0
1289,2228.0,1627.0
1290,2230.0,1098.0
1291,2228.0,592.0
1292,2223.0,183.0
1293,2230.0,-80.0
1294,2231.0,-188.0
1295,2223.0,-164.0
1296,2236.0,-53.0
1297,2223.0,92.0
1298,2232.0,227.0
1299,2228.0,336.0
1300,2230.0,277.0
1301,2227.0,197.0
1302,2223.0,109.0
1303,2229.0,25.0
1304,2227.0,-50.0
1305,2230.0,-116.0
1306,2234.0,-172.0
1307,2223.0,-222.0
1308,2228.0,-266.0
1309,2221.0,-306.0
1310,2232.0,-343.0
1311,2227.0,-377.0
1312,2229.0,-410.0
1313,2229.0,-441.0
1314,2233.0,-470.0
1315,2232.0,-496.0
1316,2229.0,-521.0
1317,2230.0,-544.0
1318,2227.0,-564.0
1319,2225.0,-583.0
1320,2223.0,-599.0
1321,2105.0,-639.0
1322,1426.0,-648.0
1323,1220.0,-656.0
1324,1688.0,-662.0
1325,2179.0,-666.0
1326,1912.0,-669.0
1327,1226.0,-671.0
1328,1025.0,-668.0
1329,1955.0,-659.0
1330,2223.0,-653.0
1331,2220.0,-674.0
1332,2228.0,-743.0
1333,2230.0,-860.0
1334,2231.0,-1001.0
1335,2227.0,-1143.0
1336,2227.0,-1277.0
1337,2232.0,-1398.0
1338,2225.0,-1484.0
1339,2232.0,-1503.0
1340,2225.0,-1429.0
1341,2223.0,-1257.0
1342,1781.0,-998.0
1343,328.0,-665.0
1344,-25.0,-285.0
1345,-21.0,90.0
1346,-29.0,397.0
1347,-23.0,584.0
1348,-22.0,639.0
1349,-30.0,585.0
1350,-23.0,450.0
1351,-19.0,244.0
1352,-24.0,-47.0
1353,-23.0,-451.0
1354,-26.0,-967.0
1355,-25.0,-2185.0
1356,-23.0,-2755.0
1357,-27.0,-3206.0
1358,-25.0,-3480.0
1359,-23.0,-3544.0
1360,-20.0,-3394.0
1361,-16.0,-3052.0
1362,-25.0,-2546.0
1363,-24.0,-1909.0
1364,-21.0,-1190.0
1365,-16.0,-460.0
1366,-22.0,920.0
1367,-27.0,930.0
1368,-26.0,740.0
1369,-19.0,432.0
1370,-25.0,100.0
1371,68.0,-173.0
1372,934.0,-343.0
1373,1487.0,-398.0
1374,1187.0,-359.0
1375,719.0,-260.0
1376,772.0,-134.0
1377,1395.0,-8.0
1378,1869.0,98.0
1379,1221.0,319.0
1380,1994.0,453.0
1381,2226.0,663.0
1382,2222.0,939.0
1383,2219.0,1251.0
1384,2233.0,1572.0
1385,2223.0,1884.0
1386,2225.0,2153.0
1387,2234.0,2339.0
1388,2220.0,2414.0
1389,2229.0,2386.0
1390,2221.0,2286.0
1391,2233.0,2143.0
1392,2231.0,1974.0
1393,2228.0,1805.0
1394,2229.0,1676.0
1395,2228.0,1618.0
1396,2223.0,1630.0
1397,2233.0,1681.0
1398,2225.0,1733.0
1399,2229.0,1751.0
1400,2230.0,1713.0
1401,2230.0,1429.0
1402,2232.0,1201.0
1403,2226.0,953.0
1404,2230.0,726.0
1405,2226.0,554.0
1406,2227.0,457.0
1407,2230.0,439.0
1408,2228.0,482.0
1409,2228.0,557.0
1410,2229.0,630.0
1411,2230.0,674.0
1412,2221.0,679.0
1413,2226.0,644.0
1414,2229.0,581.0
1415,2229.0,503.0
1416,2231.0,422.0
1417,2232.0,345.0
1418,2228.0,275.0
1419,2228.0,214.0
1420,2231.0,159.0
1421,2231.0,109.0
1422,2228.0,62.0
1423,2226.0,18.0
1424,2226.0,-23.0
1425,2227.0,-63.0
1426,2227.0,-101.0
1427,2234.0,-137.0
1428,2228.0,-170.0
1429,2230.0,-201.0
1430,2227.0,-230.0
1431,2230.0,-257.0
1432,2223.0,-283.0
1433,2229.0,-308.0
1434,2226.0,-332.0
1435,2223.0,-354.0
1436,2226.0,-395.0
1437,2228.0,-413.0
1438,2231.0,-430.0
1439,2232.0,-444.0
1440,2230.0,-457.0
1441,2223.0,-468.0
1442,2222.0,-478.0
1443,2227.0,-486.0
1444,2224.0,-494.0
1445,2228.0,-501.0
1446,2226.0,-507.0
1447,2225.0,-513.0
1448,2226.0,-517.0
1449,2228.0,-520.0
1450,2224.0,-522.0
1451,2226.0,-522.0
1452,2228.0,-521.0
1453,2224.0,-520.0
1454,2228.0,-518.0
1455,2229.0,-516.0
1456,2226.0,-513.0
1457,2223.0,-511.0
1458,2227.0,-501.0
1459,2202.0,-497.0
1460,2023.0,-491.0
1461,2224.0,-484.0
1462,2227.0,-475.0
1463,2224.0,-466.0
1464,1962.0,-457.0
1465,1702.0,-447.0
1466,2225.0,-524.0
1467,2229.0,-495.0
1468,2221.0,-358.0
1469,2227.0,-260.0
1470,2225.0,-163.0
1471,2219.0,-79.0
1472,2226.0,-15.0
1473,2231.0,25.0
1474,2223.0,41.0
1475,2236.0,30.0
1476,2232.0,-8.0
1477,2223.0,-70.0
1478,2226.0,-142.0
1479,2222.0,-210.0
1480,2225.0,-258.0
1481,2233.0,-277.0
1482,2223.0,-266.0
1483,2232.0,-230.0
1484,2231.0,-182.0
1485,2230.0,-134.0
1486,2228.0,-94.0
1487,2223.0,-66.0
1488,2225.0,-49.0
1489,2226.0,-39.0
1490,2226.0,-29.0
1491,2215.0,-26.0
1492,2221.0,-22.0
1493,2225.0,-17.0
1494,2228.0,-12.0
1495,2223.0,-7.0
1496,2226.0,-2.0
1497,2230.0,2.0
1498,2228.0,8.0
1499,2230.0,14.0
1500,2207.0,19.0
1501,2219.0,24.0
1502,2228.0,28.0
1503,2223.0,32.0
1504,2220.0,35.0
1505,1941.0,38.0
1506,2106.0,43.0
1507,2223.0,49.0
1508,2227.0,56.0
1509,2228.0,62.0
1510,2001.0,69.0
1511,2010.0,75.0
1512,2223.0,80.0
1513,2228.0,83.0
1514,2224.0,78.0
1515,1884.0,63.0
1516,2012.0,40.0
1517,2222.0,18.0
1518,2223.0,0.0
1519,2219.0,-12.0
1520,1958.0,-21.0
1521,1958.0,-22.0
1522,2227.0,-12.0
1523,2228.0,9.0
1524,1789.0,51.0
1525,1777.0,69.0
1526,2221.0,89.0
1527,2226.0,112.0
1528,2224.0,126.0
1529,1801.0,125.0
1530,1811.0,116.0
1531,2224.0,110.0
1532,2223.0,112.0
1533,2175.0,111.0
1534,1651.0,99.0
1535,1594.0,81.0
1536,2185.0,68.0
1537,2229.0,62.0
1538,2165.0,56.0
1539,1654.0,42.0
1540,1574.0,31.0
1541,2092.0,35.0
1542,2232.0,57.0
1543,2063.0,78.0
1544,1463.0,84.0
1545,1428.0,79.0
1546,2073.0,81.0
1547,2151.0,92.0
1548,1624.0,74.0
1549,1552.0,46.0
1550,2031.0,29.0
1551,2223.0,30.0
1552,1936.0,32.0
1553,1320.0,21.0
1554,1191.0,6.0
1555,1645.0,8.0
1556,2034.0,32.0
1557,1921.0,59.0
1558,1418.0,75.0
1559,1141.0,85.0
1560,1575.0,110.0
1561,2041.0,150.0
1562,1831.0,178.0
1563,1211.0,168.0
1564,1011.0,123.0
1565,1415.0,66.0
1566,1823.0,10.0
1567,1631.0,-52.0
1568,1020.0,-130.0
1569,782.0,-207.0
1570,1109.0,-250.0
1571,1439.0,-242.0
1572,1255.0,-198.0
1573,714.0,-145.0
1574,232.0,-89.0
1575,430.0,-20.0
1576,754.0,55.0
1577,525.0,105.0
1578,-28.0,97.0
1579,-25.0,32.0
1580,-20.0,-57.0
1581,-20.0,-144.0
1582,-21.0,-229.0
1583,-28.0,-323.0
1584,-22.0,-422.0
1585,-26.0,-512.0
1586,-20.0,-586.0
1587,-23.0,-658.0
1588,-24.0,-745.0
1589,-21.0,-840.0
1590,-16.0,-924.0
1591,-22.0,-976.0
1592,-23.0,-990.0
1593,-25.0,-965.0
1594,-24.0,-892.0
1595,-25.0,-762.0
1596,-26.0,-578.0
1597,-26.0,-362.0
1598,-26.0,-137.0
1599,-28.0,73.0
1600,-25.0,256.0
1601,-26.0,398.0
1602,-16.0,493.0
1603,-19.0,539.0
1604,-25.0,543.0
1605,-23.0,341.0
1606,-28.0,300.0
1607,-25.0,284.0
1608,-24.0,292.0
1609,-18.0,318.0
1610,-18.0,356.0
1611,-23.0,398.0
1612,-29.0,439.0
1613,-22.0,475.0
1614,-19.0,505.0
1615,-30.0,530.0
1616,-22.0,549.0
1617,-20.0,563.0
1618,-22.0,574.0
1619,-20.0,583.0
1620,-22.0,590.0
1621,-29.0,596.0
1622,-20.0,601.0
1623,-26.0,605.0
1624,-26.0,609.0
1625,-27.0,613.0
1626,-30.0,615.0
1627,-23.0,617.0
1628,-17.0,617.0
1629,-24.0,616.0
1630,-21.0,609.0
1631,-25.0,602.0
1632,-25.0,595.0
1633,415.0,586.0
1634,425.0,577.0
1635,183.0,566.0
1636,391.0,556.0
1637,1006.0,546.0
1638,1351.0,534.0
1639,1025.0,521.0
1640,564.0,504.0
1641,654.0,488.0
1642,1156.0,482.0
1643,1397.0,494.0
1644,992.0,523.0
1645,476.0,575.0
1646,520.0,659.0
1647,1018.0,790.0
1648,1289.0,962.0
1649,937.0,1146.0
1650,495.0,1309.0
1651,540.0,1431.0
1652,1015.0,1505.0
1653,1285.0,1517.0
1654,957.0,1441.0
1655,427.0,1266.0
1656,381.0,1015.0
1657,986.0,733.0
1658,1339.0,447.0
1659,1069.0,171.0
1660,615.0,-79.0
1661,641.0,-266.0
1662,1166.0,-354.0
1663,1480.0,-344.0
1664,783.0,-190.0
1665,795.0,-106.0
1666,1226.0,-23.0
1667,899.0,53.0
1668,-22.0,99.0
1669,-25.0,105.0
1670,-22.0,88.0
1671,-16.0,79.0
1672,-27.0,89.0
1673,-15.0,105.0
1674,-27.0,114.0
1675,-26.0,121.0
1676,-23.0,121.0
1677,-24.0,84.0
1678,-24.0,-33.0
1679,-23.0,-256.0
1680,-23.0,-567.0
1681,-23.0,-927.0
1682,-25.0,-1292.0
1683,-25.0,-1619.0
1684,-26.0,-1866.0
1685,-25.0,-1992.0
1686,-21.0,-1981.0
1687,-26.0,-1838.0
1688,-20.0,-1588.0
1689,-18.0,-1260.0
1690,-28.0,-890.0
1691,-23.0,-524.0
1692,-20.0,-209.0
1693,-20.0,12.0
1694,-25.0,118.0
1695,-24.0,111.0
1696,57.0,-251.0
1697,-24.0,-182.0
1698,-22.0,-124.0
1699,-20.0,-79.0
1700,352.0,-51.0
1701,428.0,-43.0
1702,106.0,-60.0
1703,4.0,-99.0
1704,442.0,-150.0
1705,907.0,-204.0
1706,954.0,-262.0
1707,632.0,-319.0
1708,373.0,-364.0
1709,604.0,-375.0
1710,989.0,-337.0
1711,904.0,-257.0
1712,309.0,-155.0
1713,-30.0,-41.0
1714,265.0,84.0
1715,803.0,227.0
1716,848.0,375.0
1717,463.0,509.0
1718,196.0,617.0
1719,462.0,701.0
1720,944.0,754.0
1721,947.0,752.0
1722,467.0,668.0
1723,96.0,503.0
1724,348.0,290.0
1725,893.0,68.0
1726,1023.0,-142.0
1727,600.0,-334.0
1728,290.0,-485.0
1729,531.0,-560.0
1730,1002.0,-538.0
1731,1109.0,-437.0
1732,679.0,-296.0
1733,293.0,-149.0
1734,499.0,-5.0
1735,1026.0,128.0
1736,1164.0,228.0
1737,748.0,264.0
1738,328.0,235.0
1739,506.0,172.0
1740,991.0,111.0
1741,1138.0,64.0
1742,726.0,25.0
1743,306.0,-7.0
1744,527.0,-16.0
1745,1048.0,7.0
1746,1226.0,46.0
1747,832.0,64.0
1748,365.0,45.0
1749,490.0,3.0
1750,1045.0,-38.0
1751,1247.0,-74.0
1752,909.0,-117.0
1753,531.0,-166.0
1754,675.0,-199.0
1755,1170.0,-195.0
1756,1343.0,-162.0
1757,992.0,-131.0
1758,576.0,-118.0
1759,761.0,-114.0
1760,1298.0,-99.0
1761,1548.0,-73.0
1762,1188.0,-54.0
1763,727.0,-49.0
1764,828.0,-44.0
1765,1411.0,-22.0
1766,1670.0,11.0
1767,1320.0,32.0
1768,867.0,27.0
1769,906.0,16.0
1770,1376.0,23.0
1771,1645.0,49.0
1772,1303.0,72.0
1773,830.0,75.0
1774,871.0,68.0
1775,1372.0,71.0
1776,1630.0,84.0
1777,1245.0,88.0
1778,734.0,73.0
1779,759.0,50.0
1780,1243.0,39.0
1781,1552.0,36.0
1782,1265.0,15.0
1783,781.0,-35.0
1784,750.0,-99.0
1785,1191.0,-149.0
1786,1510.0,-178.0
1787,1222.0,-205.0
1788,728.0,-247.0
1789,687.0,-292.0
1790,1166.0,-316.0
1791,1519.0,-315.0
1792,1320.0,-307.0
1793,827.0,-306.0
1794,758.0,-305.0
1795,1204.0,-286.0
1796,1570.0,-250.0
1797,1389.0,-221.0
1798,945.0,-215.0
1799,848.0,-223.0
1800,1268.0,-218.0
1801,1614.0,-195.0
1802,1348.0,-169.0
1803,829.0,-161.0
1804,1526.0,-120.0
1805,1321.0,-85.0
1806,813.0,-62.0
1807,674.0,-47.0
1808,1120.0,-21.0
1809,1514.0,12.0
1810,1367.0,30.0
1811,885.0,12.0
1812,705.0,-36.0
1813,1068.0,-89.0
1814,1390.0,-129.0
1815,1176.0,-167.0
1816,711.0,-216.0
1817,599.0,-266.0
1818,983.0,-292.0
1819,1367.0,-285.0
1820,1200.0,-257.0
1821,658.0,-229.0
1822,476.0,-199.0
1823,818.0,-157.0
1824,1191.0,-103.0
1825,1080.0,-63.0
1826,831.0,-124.0
1827,1224.0,-144.0
1828,1103.0,-160.0
1829,609.0,-186.0
1830,367.0,-220.0
1831,697.0,-240.0
1832,1138.0,-235.0
1833,1117.0,-218.0
1834,654.0,-205.0
1835,335.0,-194.0
1836,625.0,-167.0
1837,1142.0,-120.0
1838,1145.0,-71.0
1839,657.0,-45.0
1840,305.0,-42.0
1841,513.0,-37.0
1842,974.0,-14.0
1843,1014.0,15.0
1844,583.0,31.0
1845,327.0,29.0
1846,619.0,25.0
1847,1090.0,35.0
1848,1121.0,48.0
1849,668.0,48.0
1850,378.0,32.0
1851,655.0,21.0
1852,1156.0,28.0
1853,1203.0,43.0
1854,710.0,43.0
1855,356.0,28.0
1856,581.0,18.0
1857,1016.0,35.0
1858,1036.0,72.0
1859,609.0,108.0
1860,291.0,137.0
1861,507.0,175.0
1862,1032.0,236.0
1863,1074.0,305.0
1864,552.0,353.0
1865,156.0,368.0
1866,414.0,357.0
1867,965.0,335.0
1868,1024.0,296.0
1869,571.0,226.0
1870,262.0,136.0
1871,475.0,57.0
1872,950.0,16.0
1873,1017.0,8.0
1874,634.0,7.0
1875,295.0,3.0
1876,515.0,8.0
1877,1079.0,38.0
1878,1312.0,85.0
1879,990.0,125.0
1880,669.0,150.0
1881,797.0,172.0
1882,1185.0,206.0
1883,1316.0,242.0
1884,920.0,259.0
1885,427.0,253.0
1886,421.0,249.0
1887,851.0,273.0
1888,1168.0,325.0
1889,876.0,386.0
1890,484.0,440.0
1891,566.0,495.0
1892,1024.0,556.0
1893,1211.0,610.0
1894,846.0,625.0
1895,383.0,582.0
1896,476.0,491.0
1897,1025.0,377.0
1898,1223.0,251.0
1899,819.0,111.0
1900,378.0,-33.0
1901,456.0,-151.0
1902,982.0,-209.0
1903,1226.0,-202.0
1904,895.0,-151.0
1905,457.0,-80.0
1906,463.0,10.0
1907,946.0,121.0
1908,1230.0,233.0
1909,957.0,307.0
1910,542.0,321.0
1911,614.0,286.0
1912,1073.0,233.0
1913,1356.0,179.0
1914,1097.0,124.0
1915,637.0,68.0
1916,641.0,32.0
1917,1098.0,35.0
1918,1379.0,70.0
1919,1080.0,109.0
1920,585.0,131.0
1921,570.0,142.0
1922,1039.0,165.0
1923,1410.0,201.0
1924,1149.0,231.0
1925,661.0,240.0
1926,626.0,235.0
1927,1089.0,236.0
1928,1431.0,244.0
1929,1242.0,237.0
1930,767.0,200.0
1931,688.0,142.0
1932,1124.0,88.0
1933,1469.0,49.0
1934,1307.0,13.0
1935,832.0,-29.0
1936,700.0,-65.0
1937,1122.0,-69.0
1938,1514.0,-39.0
1939,1352.0,4.0
1940,914.0,38.0
1941,850.0,63.0
1942,1268.0,95.0
1943,1653.0,134.0
1944,1463.0,160.0
1945,962.0,154.0
1946,767.0,122.0
1947,1078.0,90.0
1948,1571.0,70.0
1949,1471.0,54.0
1950,922.0,28.0
1951,733.0,3.0
1952,1115.0,1.0
1953,1497.0,28.0
1954,1358.0,62.0
1955,858.0,77.0
1956,657.0,69.0
1957,1038.0,54.0
1958,1462.0,42.0
1959,1304.0,20.0
1960,763.0,-26.0
1961,518.0,-92.0
1962,882.0,-151.0
1963,604.0,-267.0
1964,259.0,-295.0
1965,1071.0,-299.0
1966,595.0,-301.0
1967,298.0,-317.0
1968,565.0,-320.0
1969,1024.0,-297.0
1970,1037.0,-261.0
1971,610.0,-242.0
1972,323.0,-245.0
1973,628.0,-251.0
1974,1099.0,-244.0
1975,1071.0,-229.0
1976,543.0,-226.0
1977,300.0,-234.0
1978,554.0,-235.0
1979,1026.0,-215.0
1980,1090.0,-184.0
1981,648.0,-161.0
1982,317.0,-148.0
1983,532.0,-124.0
1984,1016.0,-75.0
1985,1111.0,-17.0
1986,660.0,20.0
1987,266.0,25.0
1988,403.0,14.0
1989,927.0,6.0
1990,1150.0,0.0
1991,695.0,-16.0
1992,301.0,-45.0
1993,503.0,-64.0
1994,1024.0,-57.0
1995,1148.0,-34.0
1996,728.0,-19.0
1997,342.0,-22.0
1998,950.0,-16.0
1999,1140.0,4.0
2000,807.0,14.0
2001,406.0,7.0
2002,513.0,0.0
2003,1003.0,14.0
2004,1175.0,47.0
2005,787.0,75.0
2006,409.0,87.0
2007,554.0,95.0
2008,1040.0,115.0
2009,1214.0,143.0
2010,840.0,156.0
2011,427.0,144.0
2012,549.0,122.0
2013,1044.0,113.0
2014,1300.0,115.0
2015,1045.0,112.0
2016,607.0,97.0
2017,607.0,86.0
2018,1044.0,97.0
2019,1300.0,126.0
2020,989.0,148.0
2021,546.0,145.0
2022,581.0,131.0
2023,1021.0,128.0
2024,1271.0,139.0
2025,950.0,153.0
2026,477.0,157.0
2027,536.0,162.0
2028,1065.0,182.0
2029,1362.0,211.0
2030,562.0,-1.0
2031,951.0,27.0
2032,1365.0,63.0
2033,1316.0,81.0
2034,886.0,65.0
2035,802.0,27.0
2036,1327.0,-7.0
2037,1711.0,-27.0
2038,1439.0,-44.0
2039,870.0,-67.0
2040,674.0,-85.0
2041,1072.0,-71.0
2042,1329.0,-18.0
2043,1077.0,57.0
2044,602.0,134.0
2045,444.0,211.0
2046,855.0,300.0
2047,1240.0,398.0
2048,1017.0,474.0
2049,488.0,500.0
2050,287.0,468.0
2051,682.0,396.0
2052,1150.0,294.0
2053,1088.0,154.0
2054,572.0,-26.0
2055,323.0,-223.0
2056,674.0,-394.0
2057,1059.0,-516.0
2058,970.0,-594.0
2059,553.0,-640.0
2060,427.0,-648.0
2061,849.0,-601.0
2062,1348.0,-496.0
2063,1284.0,-359.0
2064,801.0,-228.0
2065,575.0,-121.0
2066,955.0,-34.0
2067,1394.0,32.0
2068,1352.0,64.0
2069,879.0,53.0
2070,647.0,16.0
2071,949.0,-7.0
2072,1381.0,7.0
2073,1348.0,48.0
2074,940.0,91.0
2075,748.0,126.0
2076,1047.0,164.0
2077,1513.0,212.0
2078,1488.0,254.0
2079,1024.0,268.0
2080,761.0,251.0
2081,1083.0,219.0
2082,1584.0,183.0
2083,1586.0,135.0
2084,1085.0,64.0
2085,790.0,-14.0
2086,1101.0,-69.0
2087,1557.0,-78.0
2088,1541.0,-50.0
2089,1058.0,-14.0
2090,761.0,17.0
2091,1119.0,54.0
2092,1667.0,103.0
2093,1703.0,147.0
2094,1240.0,165.0
2095,897.0,152.0
2096,1126.0,127.0
2097,1175.0,93.0
2098,845.0,85.0
2099,1026.0,67.0
2100,1485.0,54.0
2101,1600.0,38.0
2102,1264.0,-1.0
2103,900.0,-67.0
2104,1036.0,-133.0
2105,1555.0,-175.0
2106,1753.0,-192.0
2107,1326.0,-203.0
2108,884.0,-219.0
2109,990.0,-229.0
2110,1497.0,-218.0
2111,1686.0,-193.0
2112,876.0,-162.0
2113,989.0,-147.0
2114,1450.0,-109.0
2115,1579.0,-57.0
2116,1255.0,-16.0
2117,905.0,-2.0
2118,1036.0,-5.0
2119,1541.0,-6.0
2120,1735.0,-5.0
2121,1374.0,-21.0
2122,900.0,-61.0
2123,942.0,-109.0
2124,1424.0,-143.0
2125,1714.0,-164.0
2126,1442.0,-187.0
2127,973.0,-217.0
2128,981.0,-234.0
2129,1457.0,-216.0
2130,1742.0,-164.0
2131,1435.0,-108.0
2132,1467.0,-89.0
2133,1813.0,-62.0
2134,1496.0,-35.0
2135,566.0,-31.0
2136,-18.0,-43.0
2137,6.0,-49.0
2138,119.0,-41.0
2139,-27.0,-32.0
2140,-23.0,-33.0
2141,-22.0,-32.0
2142,-16.0,-6.0
2143,-20.0,42.0
2144,-18.0,76.0
2145,-22.0,49.0
2146,-24.0,-66.0
2147,-20.0,-270.0
2148,-17.0,-550.0
2149,-20.0,-882.0
2150,-19.0,-1229.0
2151,-20.0,-1534.0
2152,-25.0,-1739.0
2153,169.0,-1813.0
2154,44.0,-1754.0
2155,-20.0,-1579.0
2156,-22.0,-1304.0
2157,44.0,-954.0
2158,400.0,-562.0
2159,329.0,-177.0
2160,-24.0,147.0
2161,-21.0,367.0
2162,-23.0,461.0
2163,289.0,431.0
2164,221.0,306.0
2165,-21.0,135.0
2166,-23.0,-27.0
2167,90.0,-137.0
2168,516.0,-172.0
2169,505.0,-140.0
2170,60.0,-70.0
2171,239.0,89.0
2172,755.0,153.0
2173,729.0,193.0
2174,310.0,205.0
2175,60.0,200.0
2176,376.0,202.0
2177,869.0,227.0
2178,874.0,268.0
2179,407.0,313.0
2180,155.0,360.0
2181,435.0,423.0
2182,864.0,513.0
2183,823.0,616.0
2184,370.0,707.0
2185,143.0,774.0
2186,515.0,822.0
2187,1016.0,858.0
2188,1041.0,873.0
2189,617.0,855.0
2190,291.0,809.0
2191,542.0,763.0
2192,1103.0,732.0
2193,1199.0,708.0
2194,454.0,615.0
2195,730.0,572.0
2196,1192.0,561.0
2197,1295.0,577.0
2198,900.0,597.0
2199,603.0,614.0
2200,920.0,640.0
2201,1513.0,685.0
2202,1715.0,736.0
2203,1378.0,770.0
2204,1112.0,779.0
2205,1335.0,778.0
2206,1762.0,780.0
2207,1746.0,774.0
2208,1226.0,740.0
2209,868.0,682.0
2210,1042.0,630.0
2211,1493.0,613.0
2212,1601.0,636.0
2213,1224.0,678.0
2214,871.0,729.0
2215,1040.0,790.0
2216,1478.0,858.0
2217,1189.0,903.0
2218,758.0,829.0
2219,935.0,703.0
2220,1490.0,552.0
2221,1699.0,385.0
2222,1283.0,200.0
2223,856.0,10.0
2224,931.0,-150.0
2225,1412.0,-250.0
2226,1725.0,-287.0
2227,1458.0,-282.0
2228,1058.0,-251.0
2229,1186.0,-191.0
2230,1690.0,-100.0
2231,1865.0,-2.0
2232,1457.0,65.0
2233,1020.0,80.0
2234,1128.0,54.0
2235,1621.0,14.0
2236,1828.0,-24.0
2237,1494.0,-65.0
2238,1036.0,-104.0
2239,1792.0,-57.0
2240,1449.0,-24.0
2241,954.0,-29.0
2242,999.0,-61.0
2243,1508.0,-98.0
2244,1790.0,-134.0
2245,1503.0,-184.0
2246,1048.0,-256.0
2247,1044.0,-335.0
2248,1493.0,-400.0
2249,1789.0,-445.0
2250,1578.0,-485.0
2251,1091.0,-528.0
2252,1040.0,-556.0
2253,1510.0,-550.0
2254,1832.0,-512.0
2255,1536.0,-470.0
2256,916.0,-445.0
2257,736.0,-434.0
2258,1108.0,-415.0
2259,1456.0,-385.0
2260,1250.0,-360.0
2261,802.0,-354.0
2262,731.0,-357.0
2263,1160.0,-349.0
2264,1551.0,-329.0
2265,1359.0,-322.0
2266,835.0,-353.0
2267,733.0,-419.0
2268,1180.0,-499.0
2269,858.0,-750.0
2270,693.0,-826.0
2271,1083.0,-857.0
2272,1440.0,-832.0
2273,1283.0,-771.0
2274,843.0,-698.0
2275,700.0,-615.0
2276,1104.0,-509.0
2277,982.0,-407.0
2278,770.0,-381.0
2279,1406.0,-215.0
2280,881.0,-173.0
2281,731.0,-156.0
2282,1078.0,-143.0
2283,1526.0,-121.0
2284,1492.0,-96.0
2285,972.0,-82.0
2286,676.0,-74.0
2287,1006.0,-50.0
2288,1525.0,-7.0
2289,1541.0,34.0
2290,1049.0,50.0
2291,736.0,38.0
2292,1039.0,26.0
2293,1482.0,28.0
2294,1389.0,36.0
2295,839.0,27.0
2296,569.0,-1.0
2297,884.0,-26.0
2298,1388.0,-29.0
2299,719.0,-79.0
2300,1019.0,-84.0
2301,1478.0,-54.0
2302,1525.0,0.0
2303,1052.0,58.0
2304,654.0,112.0
2305,895.0,172.0
2306,1403.0,243.0
2307,1555.0,304.0
2308,1127.0,327.0
2309,714.0,307.0
2310,1059.0,87.0
2311,684.0,82.0
2312,818.0,82.0
2313,1303.0,98.0
2314,1481.0,118.0
2315,1102.0,119.0
2316,688.0,97.0
2317,807.0,74.0
2318,1297.0,74.0
2319,1494.0,92.0
2320,1146.0,107.0
2321,717.0,105.0
2322,845.0,100.0
2323,1380.0,108.0
2324,1613.0,129.0
2325,1220.0,144.0
2326,711.0,144.0
2327,849.0,140.0
2328,1418.0,147.0
2329,1648.0,159.0
2330,1275.0,158.0
2331,806.0,136.0
2332,868.0,116.0
2333,1192.0,178.0
2334,796.0,186.0
2335,852.0,185.0
2336,1308.0,195.0
2337,1571.0,214.0
2338,1280.0,223.0
2339,848.0,210.0
2340,815.0,186.0
2341,1298.0,168.0
2342,1560.0,157.0
2343,1210.0,134.0
2344,748.0,90.0
2345,810.0,44.0
2346,1330.0,21.0
2347,1610.0,26.0
2348,1295.0,38.0
2349,783.0,40.0
2350,728.0,40.0
2351,1187.0,55.0
2352,1584.0,84.0
2353,1425.0,105.0
2354,1041.0,102.0
2355,1614.0,82.0
2356,1954.0,89.0
2357,1650.0,88.0
2358,1077.0,65.0
2359,910.0,30.0
2360,1300.0,8.0
2361,1573.0,8.0
2362,1304.0,21.0
2363,833.0,38.0
2364,759.0,72.0
2365,1151.0,141.0
2366,1495.0,241.0
2367,1348.0,336.0
2368,885.0,394.0
2369,744.0,406.0
2370,1086.0,387.0
2371,1393.0,339.0
2372,1265.0,250.0
2373,860.0,112.0
2374,720.0,-54.0
2375,1088.0,-214.0
2376,1412.0,-340.0
2377,1199.0,-429.0
2378,676.0,-483.0
2379,473.0,-490.0
2380,867.0,-433.0
2381,1293.0,-320.0
2382,1166.0,-185.0
2383,663.0,-68.0
2384,485.0,15.0
2385,884.0,71.0
2386,1298.0,102.0
2387,1181.0,93.0
2388,704.0,34.0
2389,538.0,-57.0
2390,1368.0,-211.0
2391,1276.0,-252.0
2392,743.0,-283.0
2393,461.0,-303.0
2394,856.0,-296.0
2395,1377.0,-258.0
2396,1378.0,-208.0
2397,895.0,-168.0
2398,634.0,-134.0
2399,948.0,-86.0
2400,1362.0,-18.0
2401,1318.0,48.0
2402,873.0,82.0
2403,671.0,80.0
2404,1009.0,62.0
2405,1409.0,51.0
2406,1376.0,43.0
2407,976.0,28.0
2408,696.0,11.0
2409,939.0,9.0
2410,1439.0,31.0
2411,1471.0,59.0
2412,1031.0,71.0
2413,975.0,63.0
2414,1450.0,80.0
2415,1497.0,103.0
2416,1077.0,111.0
2417,797.0,96.0
2418,1033.0,79.0
2419,1482.0,77.0
2420,1542.0,87.0
2421,1083.0,92.0
2422,712.0,91.0
2423,928.0,96.0
2424,1394.0,117.0
2425,1464.0,141.0
2426,996.0,146.0
2427,635.0,131.0
2428,858.0,117.0
2429,1334.0,121.0
2430,1444.0,136.0
2431,1066.0,137.0
2432,736.0,116.0
2433,951.0,88.0
2434,1453.0,67.0
2435,1592.0,51.0
2436,738.0,-28.0
2437,883.0,-74.0
2438,1406.0,-98.0
2439,1568.0,-101.0
2440,1174.0,-101.0
2441,765.0,-101.0
2442,933.0,-83.0
2443,1517.0,-32.0
2444,1687.0,40.0
2445,1280.0,102.0
2446,849.0,136.0
2447,918.0,150.0
2448,1392.0,161.0
2449,1619.0,164.0
2450,1280.0,143.0
2451,884.0,94.0
2452,964.0,41.0
2453,1415.0,11.0
2454,1639.0,6.0
2455,1249.0,6.0
2456,1285.0,-86.0
2457,1698.0,-107.0
2458,1969.0,-107.0
2459,1675.0,-105.0
2460,1206.0,-116.0
2461,1272.0,-125.0
2462,1741.0,-105.0
2463,2022.0,-50.0
2464,1696.0,26.0
2465,1222.0,108.0
2466,1280.0,197.0
2467,1792.0,299.0
2468,2077.0,396.0
2469,1725.0,455.0
2470,1702.0,333.0
2471,2071.0,252.0
2472,1790.0,152.0
2473,1254.0,31.0
2474,1216.0,-84.0
2475,1673.0,-160.0
2476,2073.0,-185.0
2477,1762.0,-177.0
2478,1217.0,-156.0
2479,1168.0,-126.0
2480,1623.0,-79.0
2481,1935.0,-24.0
2482,1751.0,9.0
2483,1287.0,6.0
2484,1202.0,-19.0
2485,1642.0,-40.0
2486,2024.0,-45.0
2487,1776.0,-51.0
2488,1282.0,-75.0
2489,1189.0,-106.0
2490,1651.0,-124.0
2491,2055.0,-124.0
2492,1093.0,-166.0
2493,1501.0,-176.0
2494,1946.0,-164.0
2495,1807.0,-146.0
2496,1257.0,-141.0
2497,1098.0,-142.0
2498,1557.0,-131.0
2499,2018.0,-101.0
2500,1822.0,-74.0
2501,1233.0,-74.0
2502,1038.0,-99.0
2503,1416.0,-128.0
2504,1877.0,-150.0
2505,1864.0,-175.0
2506,1423.0,-214.0
2507,1153.0,-256.0
2508,1456.0,-273.0
2509,1912.0,-254.0
2510,1899.0,-223.0
2511,1428.0,-205.0
2512,1145.0,-205.0
2513,1479.0,-202.0
2514,2003.0,-182.0
2515,2046.0,-86.0
2516,1374.0,-79.0
2517,1078.0,-88.0
2518,1414.0,-88.0
2519,1877.0,-64.0
2520,1878.0,-27.0
2521,1460.0,0.0
2522,1171.0,15.0
2523,1416.0,36.0
2524,1948.0,73.0
2525,2003.0,108.0
2526,1476.0,112.0
2527,1086.0,76.0
2528,1356.0,21.0
2529,1904.0,-35.0
2530,1977.0,-96.0
2531,1482.0,-172.0
2532,1102.0,-252.0
2533,1372.0,-308.0
2534,1928.0,-318.0
2535,2037.0,-290.0
2536,1545.0,-249.0
2537,1110.0,-203.0
2538,1316.0,-139.0
2539,1869.0,-51.0
2540,1145.0,98.0
2541,1311.0,75.0
2542,1851.0,48.0
2543,2015.0,23.0
2544,1496.0,-10.0
2545,1092.0,-50.0
2546,1364.0,-75.0
2547,1934.0,-65.0
2548,2053.0,-32.0
2549,1563.0,-4.0
2550,1093.0,1.0
2551,1202.0,-1.0
2552,1783.0,4.0
2553,2094.0,14.0
2554,1669.0,6.0
2555,1182.0,-22.0
2556,1308.0,-47.0
2557,1844.0,-42.0
2558,2091.0,-13.0
2559,1698.0,10.0
2560,1251.0,12.0
2561,1358.0,3.0
2562,1903.0,5.0
2563,2175.0,19.0
2564,1730.0,28.0
2565,1248.0,23.0
2566,1411.0,21.0
2567,2044.0,39.0
2568,2220.0,72.0
2569,1754.0,95.0
2570,1275.0,95.0
2571,1399.0,91.0
2572,1897.0,106.0
2573,2180.0,139.0
2574,1834.0,163.0
2575,1331.0,161.0
2576,1352.0,146.0
2577,1879.0,142.0
2578,2158.0,150.0
2579,1766.0,150.0
2580,1208.0,131.0
2581,1211.0,106.0
2582,1771.0,96.0
2583,2113.0,101.0
2584,1772.0,98.0
2585,1189.0,76.0
2586,1083.0,49.0
2587,1613.0,39.0
2588,2064.0,46.0
2589,1824.0,44.0
2590,1261.0,19.0
2591,1139.0,-15.0
2592,1594.0,-33.0
2593,1937.0,-28.0
2594,1773.0,-24.0
2595,1371.0,-39.0
2596,1260.0,-68.0
2597,1661.0,-83.0
2598,1190.0,-61.0
2599,1056.0,-58.0
2600,1516.0,-39.0
2601,1967.0,-2.0
2602,1811.0,31.0
2603,1299.0,43.0
2604,1139.0,43.0
2605,1478.0,53.0
2606,1849.0,78.0
2607,1774.0,96.0
2608,1316.0,83.0
2609,1140.0,43.0
2610,1516.0,2.0
2611,1904.0,-23.0
2612,1763.0,-38.0
2613,1252.0,-55.0
2614,1069.0,-73.0
2615,1472.0,-75.0
2616,1898.0,-57.0
2617,1764.0,-35.0
2618,1254.0,-24.0
2619,1040.0,-18.0
2620,1365.0,2.0
2621,1804.0,43.0
2622,1800.0,81.0
2623,1338.0,89.0
2624,1052.0,67.0
2625,1344.0,41.0
2626,1800.0,27.0
2627,1793.0,21.0
2628,1328.0,8.0
2629,1024.0,-10.0
2630,1290.0,-21.0
2631,1743.0,-13.0
2632,1749.0,0.0
2633,1316.0,1.0
2634,1009.0,-5.0
2635,1271.0,-4.0
2636,1705.0,18.0
2637,1736.0,48.0
2638,1321.0,62.0
2639,978.0,55.0
2640,1205.0,46.0
2641,1642.0,49.0
2642,1718.0,57.0
2643,1275.0,50.0
2644,901.0,27.0
2645,1102.0,6.0
2646,1607.0,3.0
2647,1696.0,10.0
2648,1254.0,12.0
2649,868.0,2.0
2650,1054.0,-3.0
2651,1496.0,7.0
2652,1577.0,27.0
2653,1108.0,32.0
2654,709.0,17.0
2655,882.0,-1.0
2656,1410.0,-5.0
2657,1513.0,0.0
2658,1064.0,-3.0
2659,682.0,-18.0
2660,857.0,-32.0
2661,1273.0,-29.0
2662,1365.0,-18.0
2663,1047.0,-21.0
2664,690.0,-47.0
2665,826.0,-77.0
2666,1265.0,-91.0
2667,1456.0,-92.0
2668,1023.0,-97.0
2669,573.0,-112.0
2670,661.0,-125.0
2671,1069.0,-117.0
2672,1256.0,-94.0
2673,925.0,-74.0
2674,501.0,-64.0
2675,564.0,-50.0
2676,999.0,-18.0
2677,1178.0,24.0
2678,800.0,52.0
2679,352.0,51.0
2680,424.0,32.0
2681,891.0,14.0
2682,1111.0,0.0
2683,762.0,-23.0
2684,341.0,-60.0
2685,416.0,-96.0
2686,890.0,-113.0
2687,1083.0,-114.0
2688,741.0,-117.0
2689,275.0,-131.0
2690,271.0,-144.0
2691,781.0,-134.0
2692,1154.0,-101.0
2693,944.0,-66.0
2694,536.0,-43.0
2695,611.0,-26.0
2696,1201.0,0.0
2697,1482.0,34.0
2698,1109.0,57.0
2699,566.0,56.0
2700,453.0,45.0
2701,784.0,47.0
2702,905.0,67.0
2703,653.0,94.0
2704,317.0,119.0
2705,331.0,156.0
2706,752.0,225.0
2707,1040.0,320.0
2708,729.0,413.0
2709,244.0,472.0
2710,188.0,490.0
2711,612.0,472.0
2712,952.0,416.0
2713,692.0,310.0
2714,171.0,156.0
2715,101.0,-12.0
2716,587.0,-156.0
2717,958.0,-252.0
2718,728.0,-305.0
2719,230.0,-324.0
2720,154.0,-302.0
2721,585.0,-228.0
2722,955.0,-110.0
2723,815.0,15.0
2724,349.0,117.0
2725,254.0,182.0
2726,660.0,221.0
2727,1017.0,236.0
2728,884.0,218.0
2729,436.0,168.0
2730,323.0,110.0
2731,748.0,78.0
2732,1150.0,86.0
2733,1001.0,117.0
2734,523.0,147.0
2735,325.0,173.0
2736,692.0,203.0
2737,1135.0,241.0
2738,1061.0,268.0
2739,585.0,270.0
2740,377.0,255.0
2741,716.0,246.0
2742,1168.0,255.0
2743,1109.0,269.0
2744,626.0,267.0
2745,380.0,249.0
2746,699.0,232.0
2747,1185.0,226.0
2748,1168.0,220.0
2749,768.0,201.0
2750,824.0,151.0
2751,1265.0,150.0
2752,1207.0,157.0
2753,704.0,150.0
2754,446.0,129.0
2755,784.0,116.0
2756,1228.0,122.0
2757,1180.0,141.0
2758,673.0,151.0
2759,359.0,151.0
2760,587.0,156.0
2761,1041.0,175.0
2762,920.0,111.0
2763,982.0,94.0
2764,583.0,58.0
2765,293.0,0.0
2766,538.0,-60.0
2767,922.0,-109.0
2768,907.0,-149.0
2769,412.0,-194.0
2770,39.0,-241.0
2771,232.0,-272.0
2772,709.0,-274.0
2773,792.0,-256.0
2774,325.0,-239.0
2775,-23.0,-228.0
2776,186.0,-208.0
2777,661.0,-169.0
2778,738.0,-125.0
2779,282.0,-103.0
2780,-25.0,-115.0
2781,63.0,-148.0
2782,544.0,-183.0
2783,691.0,-221.0
2784,287.0,-271.0
2785,-22.0,-332.0
2786,136.0,-380.0
2787,596.0,-397.0
2788,692.0,-386.0
2789,263.0,-366.0
2790,-19.0,-346.0
2791,15.0,-315.0
2792,447.0,-264.0
2793,629.0,-204.0
2794,247.0,-162.0
2795,-25.0,-146.0
2796,20.0,-143.0
2797,449.0,-133.0
2798,646.0,-118.0
2799,263.0,-111.0
2800,-18.0,-120.0
2801,106.0,-132.0
2802,603.0,-132.0
2803,808.0,-122.0
2804,478.0,-120.0
2805,27.0,-133.0
2806,80.0,-148.0
2807,602.0,-150.0
2808,911.0,-139.0
2809,640.0,-129.0
2810,199.0,-124.0
2811,264.0,-109.0
2812,758.0,-65.0
2813,962.0,2.0
2814,642.0,67.0
2815,198.0,110.0
2816,255.0,134.0
2817,728.0,156.0
2818,1005.0,179.0
2819,754.0,190.0
2820,301.0,185.0
2821,314.0,177.0
2822,771.0,183.0
2823,1026.0,200.0
2824,740.0,206.0
2825,911.0,72.0
2826,1352.0,85.0
2827,1718.0,127.0
2828,1556.0,176.0
2829,1079.0,215.0
2830,956.0,247.0
2831,1412.0,292.0
2832,1782.0,354.0
2833,1555.0,415.0
2834,1066.0,458.0
2835,960.0,485.0
2836,1343.0,510.0
2837,1691.0,530.0
2838,1493.0,526.0
2839,1022.0,481.0
2840,834.0,405.0
2841,1211.0,326.0
2842,1600.0,258.0
2843,1435.0,195.0
2844,898.0,121.0
2845,761.0,45.0
2846,1200.0,-15.0
2847,1633.0,-52.0
2848,1472.0,-80.0
2849,915.0,-118.0
2850,696.0,-161.0
2851,1132.0,-191.0
2852,1555.0,-203.0
2853,1414.0,-211.0
2854,931.0,-232.0
2855,750.0,-262.0
2856,1092.0,-278.0
2857,1538.0,-267.0
2858,1519.0,-246.0
2859,1054.0,-230.0
2860,1434.0,-161.0
2861,528.0,33.0
2862,867.0,28.0
2863,1335.0,-10.0
2864,1309.0,-89.0
2865,842.0,-212.0
2866,499.0,-358.0
2867,729.0,-490.0
2868,1203.0,-582.0
2869,1264.0,-640.0
2870,801.0,-680.0
2871,487.0,-703.0
2872,740.0,-686.0
2873,1199.0,-619.0
2874,1231.0,-516.0
2875,841.0,-412.0
2876,567.0,-329.0
2877,831.0,-270.0
2878,1303.0,-230.0
2879,1325.0,-218.0
2880,880.0,-240.0
2881,595.0,-282.0
2882,831.0,-313.0
2883,978.0,-254.0
2884,598.0,-235.0
2885,809.0,-211.0
2886,1375.0,-169.0
2887,1542.0,-118.0
2888,1116.0,-79.0
2889,743.0,-58.0
2890,949.0,-43.0
2891,1433.0,-18.0
2892,1577.0,8.0
2893,1163.0,18.0
2894,784.0,7.0
2895,968.0,-6.0
2896,1448.0,-4.0
2897,1518.0,11.0
2898,1120.0,24.0
2899,729.0,30.0
2900,860.0,43.0
2901,1347.0,77.0
2902,1570.0,123.0
2903,1240.0,155.0
2904,819.0,161.0
2905,918.0,157.0
2906,1383.0,159.0
2907,1555.0,163.0
2908,1156.0,148.0
2909,683.0,107.0
2910,765.0,57.0
2911,1294.0,22.0
2912,1643.0,8.0
2913,1338.0,2.0
2914,839.0,0.0
2915,861.0,7.0
2916,1327.0,40.0
2917,1553.0,86.0
2918,1246.0,118.0
2919,815.0,119.0
2920,882.0,102.0
2921,1319.0,92.0
2922,1553.0,96.0
2923,1249.0,98.0
2924,759.0,89.0
2925,773.0,78.0
2926,1276.0,82.0
2927,1625.0,101.0
2928,1321.0,117.0
2929,858.0,117.0
2930,868.0,114.0
2931,1292.0,123.0
2932,1538.0,141.0
2933,1286.0,144.0
2934,858.0,115.0
2935,813.0,67.0
2936,1246.0,29.0
2937,1553.0,15.0
2938,1297.0,16.0
2939,770.0,22.0
2940,724.0,36.0
2941,1204.0,69.0
2942,1531.0,111.0
2943,1279.0,139.0
2944,797.0,138.0
2945,674.0,120.0
2946,1076.0,106.0
2947,1477.0,104.0
2948,1293.0,97.0
2949,845.0,69.0
2950,792.0,29.0
2951,1222.0,0.0
2952,1585.0,-7.0
2953,1336.0,-6.0
2954,849.0,-12.0
2955,800.0,-21.0
2956,1270.0,-18.0
2957,1663.0,0.0
2958,1468.0,17.0
2959,933.0,21.0
2960,803.0,21.0
2961,1228.0,39.0
2962,1620.0,79.0
2963,1439.0,119.0
2964,952.0,140.0
2965,799.0,144.0
2966,1168.0,154.0
2967,1534.0,178.0
2968,1407.0,200.0
2969,1111.0,164.0
2970,1540.0,152.0
2971,1412.0,136.0
2972,888.0,104.0
2973,691.0,64.0
2974,1033.0,38.0
2975,1471.0,33.0
2976,1379.0,33.0
2977,888.0,18.0
2978,691.0,-8.0
2979,1074.0,-25.0
2980,1530.0,-20.0
2981,1457.0,-5.0
2982,1559.0,0.0
2983,1470.0,12.0
2984,1024.0,9.0
2985,800.0,-4.0
2986,1109.0,-8.0
2987,1586.0,9.0
2988,1543.0,36.0
2989,1057.0,51.0
2990,754.0,51.0
2991,1059.0,56.0
2992,1530.0,76.0
2993,1488.0,101.0
2994,966.0,111.0
2995,650.0,105.0
2996,925.0,101.0
2997,1357.0,110.0
2998,1351.0,122.0
2999,925.0,116.0
3000,618.0,92.0
3001,862.0,70.0
3002,1341.0,63.0
3003,1419.0,60.0
3004,935.0,41.0
3005,580.0,0.0
3006,857.0,-43.0
3007,1360.0,-74.0
3008,1431.0,-97.0
3009,991.0,-127.0
3010,624.0,-162.0
3011,830.0,-179.0
3012,1320.0,-164.0
3013,1407.0,-127.0
3014,947.0,-93.0
3015,600.0,-71.0
3016,818.0,-47.0
3017,1346.0,-8.0
3018,1566.0,35.0
3019,1293.0,64.0
3020,1036.0,68.0
3021,1257.0,63.0
3022,1712.0,64.0
3023,1755.0,64.0
3024,1224.0,47.0
3025,812.0,10.0
3026,906.0,-25.0
3027,1339.0,-35.0
3028,1463.0,-17.0
3029,1086.0,16.0
3030,720.0,63.0
3031,895.0,132.0
3032,1376.0,229.0
3033,1507.0,331.0
3034,1095.0,400.0
3035,719.0,414.0
3036,1287.0,309.0
3037,1467.0,211.0
3038,1075.0,83.0
3039,608.0,-65.0
3040,815.0,-204.0
3041,1428.0,-300.0
3042,1673.0,-347.0
3043,1287.0,-356.0
3044,801.0,-334.0
3045,848.0,-276.0
3046,1283.0,-178.0
3047,1549.0,-62.0
3048,1245.0,30.0
3049,835.0,78.0
3050,924.0,91.0
3051,1352.0,94.0
3052,1541.0,97.0
3053,1310.0,93.0
3054,955.0,76.0
3055,983.0,62.0
3056,1447.0,66.0
3057,1707.0,84.0
3058,1411.0,94.0
3059,967.0,83.0
3060,956.0,63.0
3061,1435.0,50.0
3062,1766.0,44.0
3063,1487.0,31.0
3064,1175.0,28.0
3065,1568.0,14.0
3066,1372.0,2.0
3067,918.0,-23.0
3068,833.0,-57.0
3069,1257.0,-79.0
3070,1599.0,-81.0
3071,1392.0,-83.0
3072,909.0,-100.0
3073,762.0,-128.0
3074,1202.0,-146.0
3075,1603.0,-146.0
3076,1384.0,-141.0
3077,848.0,-145.0
3078,634.0,-151.0
3079,973.0,-138.0
3080,1314.0,-101.0
3081,1206.0,-60.0
3082,744.0,-37.0
3083,597.0,-31.0
3084,982.0,-26.0
3085,1355.0,-13.0
3086,1198.0,-5.0
3087,720.0,-22.0
3088,552.0,-60.0
3089,945.0,-103.0
3090,1368.0,-142.0
3091,1257.0,-184.0
3092,750.0,-236.0
3093,528.0,-285.0
3094,899.0,-307.0
3095,1362.0,-291.0
3096,1315.0,-256.0
3097,805.0,-224.0
3098,573.0,-200.0
3099,1002.0,-164.0
3100,1487.0,-111.0
3101,1384.0,-54.0
3102,911.0,7.0
3103,1365.0,17.0
3104,1431.0,21.0
3105,1012.0,7.0
3106,755.0,-14.0
3107,1039.0,-20.0
3108,1462.0,3.0
3109,1453.0,40.0
3110,956.0,64.0
3111,701.0,67.0
3112,1020.0,65.0
3113,1549.0,72.0
3114,1564.0,82.0
3115,1070.0,80.0
3116,737.0,69.0
3117,995.0,67.0
3118,1456.0,83.0
3119,1497.0,104.0
3120,1099.0,109.0
3121,785.0,95.0
3122,961.0,85.0
3123,1353.0,96.0
3124,1380.0,120.0
3125,1001.0,134.0
3126,695.0,127.0
3127,919.0,112.0
3128,1367.0,103.0
3129,1448.0,95.0
3130,975.0,78.0
3131,574.0,53.0
3132,785.0,34.0
3133,1170.0,-27.0
3134,808.0,-24.0
3135,918.0,-14.0
3136,1561.0,50.0
3137,1205.0,74.0
3138,725.0,76.0
3139,865.0,71.0
3140,1337.0,80.0
3141,1498.0,100.0
3142,1119.0,113.0
3143,672.0,105.0
3144,741.0,89.0
3145,1205.0,81.0
3146,1391.0,80.0
3147,1012.0,71.0
3148,565.0,48.0
3149,630.0,22.0
3150,1125.0,13.0
3151,1338.0,15.0
3152,1012.0,8.0
3153,566.0,-20.0
3154,600.0,-57.0
3155,1087.0,-84.0
3156,1393.0,-99.0
3157,1024.0,-117.0
3158,536.0,-147.0
3159,664.0,-173.0
3160,1178.0,-179.0
3161,1411.0,-163.0
3162,1119.0,-145.0
3163,714.0,-138.0
3164,797.0,-132.0
3165,1346.0,-109.0
3166,1771.0,-70.0
3167,1532.0,-36.0
3168,1029.0,-20.0
3169,957.0,-12.0
3170,1253.0,62.0
3171,717.0,68.0
3172,645.0,72.0
3173,1111.0,97.0
3174,1446.0,150.0
3175,1166.0,213.0
3176,644.0,265.0
3177,611.0,303.0
3178,1035.0,332.0
3179,1369.0,343.0
3180,1155.0,313.0
3181,654.0,230.0
3182,514.0,110.0
3183,901.0,-10.0
3184,1279.0,-115.0
3185,1143.0,-209.0
3186,668.0,-297.0
3187,495.0,-364.0
3188,899.0,-387.0
3189,1314.0,-356.0
3190,1162.0,-292.0
3191,681.0,-219.0
3192,478.0,-147.0
3193,835.0,-72.0
3194,1249.0,-1.0
3195,1166.0,43.0
3196,702.0,46.0
3197,468.0,19.0
3198,753.0,-9.0
3199,1123.0,-21.0
3200,987.0,-24.0
3201,540.0,-33.0
3202,323.0,-48.0
3203,632.0,-50.0
3204,1004.0,-34.0
3205,417.0,-7.0
3206,246.0,-17.0
3207,619.0,-30.0
3208,1037.0,-37.0
3209,946.0,-50.0
3210,465.0,-81.0
3211,294.0,-126.0
3212,628.0,-162.0
3213,1093.0,-179.0
3214,1037.0,-185.0
3215,588.0,-197.0
3216,1059.0,174.0
3217,1018.0,184.0
3218,555.0,171.0
3219,271.0,137.0
3220,523.0,102.0
3221,983.0,83.0
3222,1001.0,71.0
3223,552.0,51.0
3224,255.0,22.0
3225,514.0,2.0
3226,1004.0,4.0
3227,1038.0,16.0
3228,562.0,20.0
3229,228.0,13.0
3230,475.0,9.0
3231,980.0,20.0
3232,1059.0,38.0
3233,640.0,42.0
3234,285.0,32.0
3235,510.0,25.0
3236,1007.0,35.0
3237,1114.0,55.0
3238,686.0,65.0
3239,356.0,60.0
3240,527.0,57.0
3241,1023.0,71.0
3242,1181.0,95.0
3243,754.0,108.0
3244,379.0,104.0
3245,576.0,99.0
3246,1062.0,108.0
3247,1169.0,125.0
3248,764.0,132.0
3249,368.0,124.0
3250,559.0,117.0
3251,1062.0,126.0
3252,1241.0,147.0
3253,842.0,158.0
3254,428.0,149.0
3255,584.0,137.0
3256,1094.0,135.0
3257,1291.0,141.0
3258,897.0,135.0
3259,468.0,112.0
3260,556.0,87.0
3261,1000.0,80.0
3262,1241.0,88.0
3263,957.0,92.0
3264,576.0,83.0
3265,680.0,74.0
3266,1126.0,82.0
3267,1284.0,104.0
3268,957.0,119.0
3269,581.0,115.0
3270,663.0,102.0
3271,1153.0,96.0
3272,1381.0,97.0
3273,1028.0,90.0
3274,567.0,69.0
3275,621.0,50.0
3276,1115.0,50.0
3277,1392.0,66.0
3278,1024.0,78.0
3279,559.0,74.0
3280,639.0,66.0
3281,1158.0,70.0
3282,1406.0,87.0
3283,1070.0,96.0
3284,644.0,84.0
3285,728.0,60.0
3286,1175.0,39.0
3287,1485.0,26.0
3288,1235.0,7.0
3289,775.0,-23.0
3290,690.0,-51.0
3291,1136.0,-55.0
3292,1443.0,-39.0
3293,1216.0,-23.0
3294,756.0,-23.0
3295,720.0,-27.0
3296,1163.0,-15.0
3297,1462.0,13.0
3298,1234.0,42.0
3299,745.0,53.0
3300,687.0,51.0
3301,1170.0,50.0
3302,1535.0,51.0
3303,1265.0,41.0
3304,734.0,9.0
3305,605.0,-31.0
3306,1048.0,-60.0
3307,1416.0,-70.0
3308,1226.0,-77.0
3309,741.0,-96.0
3310,682.0,-119.0
3311,1126.0,-124.0
3312,1495.0,-106.0
3313,1275.0,-83.0
3314,797.0,-76.0
3315,708.0,-85.0
3316,1115.0,-94.0
3317,1497.0,-98.0
3318,1343.0,-109.0
3319,904.0,-135.0
3320,738.0,-165.0
3321,1101.0,-174.0
3322,1551.0,-155.0
3323,1489.0,-128.0
3324,1029.0,-113.0
3325,943.0,-107.0
3326,1504.0,-92.0
3327,2073.0,-62.0
3328,1973.0,-32.0
3329,1417.0,-21.0
3330,1580.0,-35.0
3331,2015.0,-35.0
3332,1846.0,-35.0
3333,1266.0,-44.0
3334,1039.0,-47.0
3335,1421.0,-18.0
3336,1935.0,55.0
3337,1884.0,152.0
3338,1396.0,243.0
3339,1136.0,311.0
3340,1440.0,362.0
3341,1880.0,395.0
3342,1787.0,390.0
3343,1320.0,330.0
3344,1077.0,223.0
3345,1441.0,100.0
3346,1940.0,-11.0
3347,1906.0,-111.0
3348,1387.0,-203.0
3349,1075.0,-280.0
3350,1908.0,-90.0
3351,1400.0,-100.0
3352,1103.0,-114.0
3353,1458.0,-117.0
3354,1984.0,-103.0
3355,1955.0,-90.0
3356,1420.0,-100.0
3357,1142.0,-134.0
3358,1448.0,-168.0
3359,1959.0,-182.0
3360,2038.0,-181.0
3361,1545.0,-185.0
3362,1204.0,-196.0
3363,1503.0,-197.0
3364,1516.0,-124.0
3365,1136.0,-121.0
3366,1447.0,-116.0
3367,2004.0,-96.0
3368,2087.0,-71.0
3369,1546.0,-61.0
3370,1130.0,-68.0
3371,1377.0,-73.0
3372,1983.0,-62.0
3373,2143.0,-45.0
3374,1599.0,-45.0
3375,1169.0,-66.0
3376,1332.0,-89.0
3377,1847.0,-95.0
3378,2085.0,-90.0
3379,1669.0,-98.0
3380,1202.0,-125.0
3381,1373.0,-151.0
3382,1489.0,-132.0
3383,1124.0,-135.0
3384,1289.0,-135.0
3385,1795.0,-118.0
3386,1951.0,-90.0
3387,1492.0,-72.0
3388,996.0,-75.0
3389,1156.0,-83.0
3390,1713.0,-81.0
3391,1888.0,-72.0
3392,1548.0,-80.0
3393,1127.0,-110.0
3394,1210.0,-143.0
3395,1704.0,-156.0
3396,1893.0,-151.0
3397,1529.0,-148.0
3398,1099.0,-160.0
3399,1183.0,-177.0
3400,1646.0,-178.0
3401,1879.0,-165.0
3402,1574.0,-149.0
3403,1119.0,-138.0
3404,1815.0,-34.0
3405,1447.0,0.0
3406,933.0,5.0
3407,995.0,-1.0
3408,1581.0,0.0
3409,1882.0,12.0
3410,1563.0,19.0
3411,1099.0,9.0
3412,1078.0,-8.0
3413,1502.0,-18.0
3414,1815.0,-18.0
3415,1555.0,-28.0
3416,1069.0,-55.0
3417,1059.0,-85.0
3418,1559.0,-94.0
3419,1820.0,-77.0
3420,1558.0,-50.0
3421,1061.0,-31.0
3422,1029.0,-14.0
3423,1461.0,14.0
3424,1769.0,54.0
3425,1492.0,87.0
3426,979.0,100.0
3427,1731.0,133.0
3428,1544.0,142.0
3429,1037.0,124.0
3430,937.0,90.0
3431,1345.0,63.0
3432,1706.0,53.0
3433,1521.0,47.0
3434,1092.0,32.0
3435,1004.0,12.0
3436,1412.0,6.0
3437,1750.0,16.0
3438,1570.0,29.0
3439,1096.0,29.0
3440,1707.0,64.0
3441,1490.0,97.0
3442,971.0,117.0
3443,843.0,129.0
3444,1310.0,150.0
3445,1776.0,183.0
3446,1636.0,210.0
3447,1093.0,213.0
3448,879.0,195.0
3449,1255.0,174.0
3450,1682.0,161.0
3451,1602.0,144.0
3452,1133.0,111.0
3453,917.0,69.0
3454,1304.0,43.0
3455,1690.0,45.0
3456,1535.0,61.0
3457,1036.0,74.0
3458,903.0,82.0
3459,1312.0,101.0
3460,1703.0,135.0
3461,1539.0,170.0
3462,1012.0,186.0
3463,714.0,185.0
3464,1076.0,185.0
3465,1585.0,192.0
3466,1506.0,191.0
3467,980.0,166.0
3468,722.0,125.0
3469,1083.0,93.0
3470,1529.0,87.0
3471,1448.0,94.0
3472,1033.0,91.0
3473,794.0,73.0
3474,1091.0,53.0
3475,1527.0,43.0
3476,1503.0,34.0
3477,1063.0,13.0
3478,807.0,-12.0
3479,1068.0,-24.0
3480,1516.0,-12.0
3481,1570.0,10.0
3482,1167.0,24.0
3483,949.0,30.0
3484,1296.0,44.0
3485,1850.0,79.0
3486,2005.0,120.0
3487,1573.0,145.0
3488,1266.0,147.0
3489,1476.0,140.0
3490,1881.0,139.0
3491,1872.0,140.0
3492,1371.0,133.0
3493,1012.0,121.0
3494,1214.0,128.0
3495,1698.0,170.0
3496,1740.0,239.0
3497,1232.0,312.0
3498,888.0,375.0
3499,1121.0,432.0
3500,1608.0,482.0
3501,1716.0,506.0
3502,1290.0,481.0
3503,882.0,402.0
3504,1036.0,292.0
3505,1548.0,178.0
3506,1636.0,64.0
3507,1248.0,-54.0
3508,863.0,-172.0
3509,1046.0,-261.0
3510,1506.0,-298.0
3511,1631.0,-285.0
3512,1209.0,-244.0
3513,800.0,-192.0
3514,951.0,-127.0
3515,1448.0,-51.0
3516,1665.0,18.0
3517,1312.0,57.0
3518,912.0,57.0
3519,1013.0,37.0
3520,1504.0,21.0
3521,1655.0,9.0
3522,894.0,-90.0
3523,1401.0,-108.0
3524,1701.0,-103.0
3525,1397.0,-93.0
3526,932.0,-86.0
3527,955.0,-75.0
3528,1432.0,-49.0
3529,1713.0,-15.0
3530,1389.0,4.0
3531,892.0,-2.0
3532,924.0,-22.0
3533,1425.0,-34.0
3534,1658.0,-33.0
3535,1318.0,-35.0
3536,896.0,-49.0
3537,967.0,-67.0
3538,1436.0,-68.0
3539,1635.0,-53.0
3540,1308.0,-38.0
3541,860.0,-37.0
3542,845.0,-40.0
3543,1347.0,-32.0
3544,1655.0,-14.0
3545,1373.0,-7.0
3546,887.0,-23.0
3547,862.0,-50.0
3548,1270.0,-66.0
3549,1516.0,-67.0
3550,1220.0,-68.0
3551,703.0,-81.0
3552,649.0,-97.0
3553,1072.0,-96.0
3554,1361.0,-79.0
3555,1055.0,-61.0
3556,500.0,-58.0
3557,370.0,-63.0
3558,763.0,-62.0
3559,1075.0,-55.0
3560,291.0,-92.0
3561,211.0,-137.0
3562,648.0,-172.0
3563,968.0,-192.0
3564,691.0,-215.0
3565,212.0,-256.0
3566,161.0,-309.0
3567,639.0,-354.0
3568,995.0,-382.0
3569,768.0,-403.0
3570,230.0,-426.0
3571,93.0,-444.0
3572,498.0,-436.0
3573,899.0,-403.0
3574,741.0,-364.0
3575,224.0,-338.0
3576,90.0,-316.0
3577,510.0,-277.0
3578,905.0,-216.0
3579,750.0,-152.0
3580,279.0,-105.0
3581,143.0,-78.0
3582,484.0,-56.0
3583,852.0,-33.0
3584,714.0,-22.0
3585,253.0,-33.0
3586,94.0,-55.0
3587,507.0,-66.0
3588,904.0,-54.0
3589,772.0,-34.0
3590,300.0,-23.0
3591,146.0,-17.0
3592,538.0,0.0
3593,970.0,33.0
3594,923.0,69.0
3595,473.0,88.0
3596,221.0,91.0
3597,496.0,96.0
3598,884.0,112.0
3599,870.0,130.0
3600,429.0,135.0
3601,176.0,132.0
3602,535.0,140.0
3603,1019.0,171.0
3604,948.0,215.0
3605,459.0,250.0
3606,204.0,272.0
3607,509.0,290.0
3608,968.0,310.0
3609,1028.0,318.0
3610,685.0,300.0
3611,472.0,261.0
3612,767.0,228.0
3613,1226.0,216.0
3614,1175.0,219.0
3615,714.0,216.0
3616,496.0,202.0
3617,781.0,193.0
3618,1221.0,204.0
3619,1228.0,230.0
3620,810.0,258.0
3621,543.0,285.0
3622,786.0,325.0
3623,1235.0,380.0
3624,1307.0,431.0
3625,893.0,454.0
3626,575.0,448.0
3627,826.0,429.0
3628,1295.0,416.0
3629,1358.0,404.0
3630,948.0,376.0
3631,627.0,330.0
3632,844.0,280.0
3633,1349.0,243.0
3634,1452.0,215.0
3635,1018.0,186.0
3636,631.0,157.0
3637,846.0,144.0
3638,1360.0,159.0
3639,1479.0,188.0
3640,1100.0,205.0
3641,736.0,200.0
3642,899.0,189.0
3643,1378.0,186.0
3644,1481.0,188.0
3645,1061.0,178.0
3646,691.0,150.0
3647,843.0,120.0
3648,1311.0,105.0
3649,1409.0,101.0
3650,1001.0,92.0
3651,607.0,70.0
3652,762.0,51.0
3653,1253.0,47.0
3654,1418.0,50.0
3655,1046.0,41.0
3656,622.0,11.0
3657,767.0,-24.0
3658,1282.0,-48.0
3659,1510.0,-65.0
3660,1148.0,-91.0
3661,709.0,-135.0
3662,824.0,-179.0
3663,1339.0,-206.0
3664,1555.0,-214.0
3665,1198.0,-220.0
3666,867.0,-233.0
3667,1377.0,-211.0
3668,1715.0,-172.0
3669,1467.0,-137.0
3670,1111.0,-118.0
3671,1247.0,-107.0
3672,1820.0,-86.0
3673,2038.0,-61.0
3674,1519.0,-49.0
3675,1007.0,-62.0
3676,986.0,-85.0
3677,846.0,-58.0
3678,880.0,-27.0
3679,1313.0,33.0
3680,1584.0,112.0
3681,1272.0,174.0
3682,776.0,193.0
3683,751.0,166.0
3684,1154.0,108.0
3685,1456.0,24.0
3686,1244.0,-90.0
3687,819.0,-231.0
3688,787.0,-371.0
3689,1214.0,-479.0
3690,1588.0,-541.0
3691,1422.0,-571.0
3692,925.0,-580.0
3693,834.0,-562.0
3694,1278.0,-505.0
3695,741.0,-156.0
3696,1224.0,-151.0
3697,1709.0,-124.0
3698,1547.0,-93.0
3699,999.0,-79.0
3700,828.0,-82.0
3701,1249.0,-89.0
3702,1673.0,-96.0
3703,1531.0,-118.0
3704,1061.0,-164.0
3705,887.0,-222.0
3706,1276.0,-261.0
3707,1714.0,-265.0
3708,1594.0,-245.0
3709,1728.0,-108.0
3710,1626.0,-61.0
3711,1110.0,-35.0
3712,881.0,-28.0
3713,1262.0,-18.0
3714,1683.0,1.0
3715,1591.0,16.0
3716,1147.0,7.0
3717,935.0,-19.0
3718,1255.0,-41.0
3719,1675.0,-42.0
3720,1654.0,-33.0
3721,1210.0,-32.0
3722,951.0,-41.0
3723,1297.0,-47.0
3724,1727.0,-42.0
3725,1659.0,-37.0
3726,1169.0,-47.0
3727,927.0,-69.0
3728,1194.0,-82.0
3729,1615.0,-73.0
3730,1614.0,-54.0
3731,1123.0,-42.0
3732,847.0,-37.0
3733,1136.0,-25.0
3734,1611.0,3.0
3735,1570.0,33.0
3736,1071.0,44.0
3737,858.0,31.0
3738,1172.0,11.0
3739,1632.0,-1.0
3740,1644.0,-15.0
3741,1202.0,-43.0
3742,888.0,-81.0
3743,1135.0,-111.0
3744,1609.0,-119.0
3745,1648.0,-114.0
3746,1181.0,-113.0
3747,854.0,-118.0
3748,1088.0,-111.0
3749,1546.0,-80.0
3750,1574.0,-35.0
3751,1112.0,0.0
3752,759.0,18.0
3753,1019.0,33.0
3754,1563.0,54.0
3755,1689.0,72.0
3756,1255.0,71.0
3757,853.0,49.0
3758,995.0,24.0
3759,1479.0,10.0
3760,1640.0,0.0
3761,1253.0,-22.0
3762,933.0,-60.0
3763,1151.0,-91.0
3764,1610.0,-94.0
3765,1706.0,-72.0
3766,1277.0,-45.0
3767,867.0,-23.0
3768,1024.0,-2.0
3769,1473.0,28.0
3770,1616.0,62.0
3771,1192.0,81.0
3772,737.0,83.0
3773,897.0,86.0
3774,1428.0,105.0
3775,1598.0,133.0
3776,1223.0,144.0
3777,819.0,128.0
3778,934.0,99.0
3779,1424.0,76.0
3780,1614.0,62.0
3781,1211.0,39.0
3782,809.0,2.0
3783,946.0,-35.0
3784,1417.0,-57.0
3785,1632.0,-63.0
3786,1287.0,-68.0
3787,867.0,-75.0
3788,911.0,-70.0
3789,1328.0,-37.0
3790,1575.0,15.0
3791,1295.0,61.0
3792,874.0,85.0
3793,913.0,97.0
3794,1335.0,112.0
3795,1605.0,131.0
3796,1327.0,138.0
3797,867.0,122.0
3798,871.0,96.0
3799,1315.0,79.0
3800,1569.0,74.0
3801,1300.0,67.0
3802,917.0,35.0
3803,1337.0,38.0
3804,1623.0,56.0
3805,1368.0,72.0
3806,943.0,71.0
3807,965.0,62.0
3808,1395.0,61.0
3809,1714.0,72.0
3810,1511.0,81.0
3811,1022.0,77.0
3812,934.0,68.0
3813,1350.0,71.0
3814,1639.0,87.0
3815,1367.0,102.0
3816,869.0,103.0
3817,785.0,101.0
3818,1228.0,113.0
3819,1627.0,143.0
3820,1473.0,173.0
3821,970.0,187.0
3822,815.0,186.0
3823,1236.0,183.0
3824,1622.0,180.0
3825,1416.0,160.0
3826,927.0,113.0
3827,864.0,51.0
3828,1319.0,1.0
3829,1662.0,-24.0
3830,1488.0,-34.0
3831,1032.0,-44.0
3832,884.0,-49.0
3833,1237.0,-35.0
3834,1690.0,0.0
3835,1634.0,37.0
3836,1255.0,61.0
3837,1167.0,73.0
3838,1607.0,91.0
3839,2085.0,120.0
3840,1913.0,143.0
3841,1288.0,141.0
3842,1003.0,117.0
3843,1319.0,93.0
3844,1739.0,86.0
3845,1597.0,89.0
3846,1030.0,97.0
3847,818.0,117.0
3848,1213.0,163.0
3849,1674.0,237.0
3850,1633.0,310.0
3851,1127.0,351.0
3852,874.0,350.0
3853,1193.0,319.0
3854,1619.0,270.0
3855,1586.0,198.0
3856,1137.0,93.0
3857,873.0,-30.0
3858,1163.0,-142.0
3859,1625.0,-220.0
3860,1159.0,-292.0
3861,861.0,-295.0
3862,1157.0,-260.0
3863,1607.0,-184.0
3864,1630.0,-89.0
3865,1185.0,-10.0
3866,912.0,40.0
3867,1145.0,70.0
3868,1573.0,88.0
3869,1707.0,90.0
3870,1370.0,62.0
3871,1057.0,12.0
3872,1233.0,-34.0
3873,1688.0,-58.0
3874,1816.0,-63.0
3875,1406.0,-66.0
3876,1071.0,-73.0
3877,1266.0,-74.0
3878,1718.0,-57.0
3879,1773.0,-32.0
3880,1351.0,-13.0
3881,1048.0,-4.0
3882,1272.0,7.0
3883,1761.0,34.0
3884,1822.0,69.0
3885,1381.0,92.0
3886,1035.0,95.0
3887,1252.0,89.0
3888,1742.0,88.0
3889,1916.0,86.0
3890,1546.0,69.0
3891,1150.0,32.0
3892,1300.0,-4.0
3893,1832.0,-25.0
3894,2001.0,-30.0
3895,1029.0,-52.0
3896,1204.0,-60.0
3897,1724.0,-47.0
3898,1891.0,-17.0
3899,1530.0,7.0
3900,1131.0,22.0
3901,1272.0,36.0
3902,1694.0,62.0
3903,1868.0,90.0
3904,1468.0,97.0
3905,986.0,73.0
3906,1058.0,35.0
3907,1563.0,4.0
3908,1783.0,-16.0
3909,1433.0,-40.0
3910,1011.0,-72.0
3911,1090.0,-100.0
3912,1543.0,-105.0
3913,1723.0,-95.0
3914,1413.0,-90.0
3915,1011.0,-103.0
3916,1052.0,-122.0
3917,1466.0,-129.0
3918,1421.0,-126.0
3919,998.0,-141.0
3920,1017.0,-160.0
3921,1479.0,-167.0
3922,1768.0,-159.0
3923,1478.0,-151.0
3924,980.0,-152.0
3925,960.0,-151.0
3926,1404.0,-133.0
3927,1721.0,-103.0
3928,1449.0,-81.0
3929,985.0,-83.0
3930,962.0,-92.0
3931,1373.0,-90.0
3932,1667.0,-75.0
3933,1435.0,-64.0
3934,986.0,-69.0
3935,944.0,-83.0
3936,1339.0,-88.0
3937,1691.0,-80.0
3938,1488.0,-75.0
3939,996.0,-83.0
3940,897.0,-96.0
3941,1292.0,-93.0
3942,1650.0,-72.0
3943,1472.0,-48.0
3944,1043.0,-37.0
3945,916.0,-36.0
3946,1300.0,-29.0
3947,1640.0,-11.0
3948,1450.0,4.0
3949,980.0,5.0
3950,872.0,-4.0
3951,1262.0,-8.0
3952,1630.0,0.0
3953,1485.0,6.0
3954,963.0,1.0
3955,787.0,-10.0
3956,1164.0,-11.0
3957,1557.0,2.0
3958,1437.0,16.0
3959,919.0,14.0
3960,696.0,0.0
3961,1059.0,-5.0
3962,1528.0,3.0
3963,1468.0,16.0
3964,980.0,15.0
3965,779.0,1.0
3966,1125.0,-9.0
3967,1573.0,-8.0
3968,1465.0,-7.0
3969,1008.0,-19.0
3970,792.0,-42.0
3971,1103.0,-56.0
3972,1519.0,-49.0
3973,1502.0,-34.0
3974,1041.0,-25.0
3975,797.0,-22.0
3976,1075.0,-8.0
3977,1508.0,24.0
3978,1397.0,63.0
3979,913.0,86.0
3980,703.0,91.0
3981,1050.0,93.0
3982,1551.0,104.0
3983,1532.0,114.0
3984,1007.0,107.0
3985,713.0,85.0
3986,992.0,64.0
3987,1494.0,54.0
3988,1531.0,46.0
3989,1085.0,26.0
3990,784.0,-3.0
3991,1035.0,-21.0
3992,1509.0,-13.0
3993,1503.0,11.0
3994,1011.0,30.0
3995,682.0,36.0
3996,958.0,43.0
3997,1436.0,62.0
3998,1492.0,85.0
3999,1022.0,97.0
4000,610.0,97.0
4001,840.0,101.0
4002,1351.0,117.0
4003,1507.0,132.0
4004,1106.0,123.0
4005,740.0,89.0
4006,920.0,51.0
4007,1329.0,30.0
4008,1439.0,25.0
4009,1069.0,16.0
4010,728.0,-4.0
4011,901.0,-24.0
4012,1359.0,-29.0
4013,1501.0,-19.0
4014,1061.0,-9.0
4015,620.0,-3.0
4016,794.0,10.0
4017,1393.0,40.0
4018,1639.0,76.0
4019,1294.0,94.0
4020,930.0,89.0
4021,1175.0,76.0
4022,1783.0,75.0
4023,1999.0,82.0
4024,1578.0,77.0
4025,1051.0,53.0
4026,1094.0,21.0
4027,1527.0,6.0
4028,1681.0,11.0
4029,1296.0,29.0
4030,847.0,55.0
4031,888.0,103.0
4032,1324.0,184.0
4033,1531.0,283.0
4034,1191.0,367.0
4035,736.0,413.0
4036,811.0,423.0
4037,1250.0,410.0
4038,1509.0,372.0
4039,1228.0,295.0
4040,755.0,179.0
4041,768.0,46.0
4042,1233.0,-72.0
4043,1463.0,-166.0
4044,1130.0,-240.0
4045,702.0,-299.0
4046,779.0,-327.0
4047,1316.0,-309.0
4048,1614.0,-249.0
4049,1300.0,-172.0
4050,795.0,-104.0
4051,783.0,-49.0
4052,1251.0,-1.0
4053,1550.0,32.0
4054,1304.0,39.0
4055,855.0,14.0
4056,837.0,-21.0
4057,1267.0,-41.0
4058,1583.0,-38.0
4059,1304.0,-26.0
4060,832.0,-23.0
4061,835.0,-25.0
4062,1328.0,-19.0
4063,1713.0,-3.0
4064,1471.0,6.0
4065,1003.0,-20.0
4066,937.0,-46.0
4067,1363.0,-53.0
4068,1744.0,-33.0
4069,1539.0,0.0
4070,1039.0,25.0
4071,920.0,42.0
4072,1308.0,63.0
4073,1678.0,87.0
4074,1557.0,102.0
4075,1128.0,94.0
4076,959.0,74.0
4077,1466.0,-7.0
4078,1334.0,-8.0
4079,828.0,-33.0
4080,595.0,-74.0
4081,944.0,-109.0
4082,1354.0,-125.0
4083,1297.0,-132.0
4084,833.0,-144.0
4085,565.0,-164.0
4086,878.0,-175.0
4087,1293.0,-172.0
4088,1235.0,-164.0
4089,770.0,-167.0
4090,559.0,-178.0
4091,928.0,-182.0
4092,1382.0,-171.0
4093,1319.0,-158.0
4094,816.0,-158.0
4095,554.0,-172.0
4096,837.0,-182.0
4097,1290.0,-175.0
4098,1300.0,-161.0
4099,877.0,-155.0
4100,644.0,-156.0
4101,917.0,-147.0
4102,1386.0,-116.0
4103,606.0,-46.0
4104,856.0,-46.0
4105,1337.0,-38.0
4106,1362.0,-29.0
4107,920.0,-28.0
4108,651.0,-35.0
4109,947.0,-33.0
4110,1489.0,-11.0
4111,1580.0,18.0
4112,1124.0,34.0
4113,709.0,32.0
4114,854.0,28.0
4115,1397.0,34.0
4116,1564.0,46.0
4117,1127.0,47.0
4118,748.0,35.0
4119,909.0,27.0
4120,1376.0,41.0
4121,1548.0,71.0
4122,1185.0,96.0
4123,824.0,106.0
4124,943.0,114.0
4125,1546.0,151.0
4126,1193.0,157.0
4127,824.0,142.0
4128,936.0,120.0
4129,1438.0,106.0
4130,1661.0,99.0
4131,1273.0,84.0
4132,808.0,59.0
4133,940.0,38.0
4134,1406.0,41.0
4135,1592.0,63.0
4136,1259.0,84.0
4137,838.0,90.0
4138,896.0,89.0
4139,1372.0,96.0
4140,1606.0,111.0
4141,1265.0,116.0
4142,797.0,105.0
4143,812.0,87.0
4144,1301.0,79.0
4145,1575.0,80.0
4146,1272.0,74.0
4147,813.0,53.0
4148,1518.0,24.0
4149,1242.0,22.0
4150,779.0,2.0
4151,780.0,-23.0
4152,1256.0,-36.0
4153,1520.0,-33.0
4154,1206.0,-28.0
4155,728.0,-32.0
4156,735.0,-40.0
4157,1161.0,-36.0
4158,1452.0,-21.0
4159,724.0,-86.0
4160,636.0,-92.0
4161,1091.0,-85.0
4162,1453.0,-63.0
4163,1233.0,-43.0
4164,732.0,-38.0
4165,622.0,-42.0
4166,1069.0,-40.0
4167,1476.0,-27.0
4168,1321.0,-19.0
4169,842.0,-29.0
4170,675.0,-53.0
4171,1089.0,-69.0
4172,1463.0,-69.0
4173,1283.0,-64.0
4174,778.0,-68.0
4175,616.0,-77.0
4176,958.0,-73.0
4177,1385.0,-51.0
4178,1340.0,-23.0
4179,987.0,-5.0
4180,874.0,4.0
4181,1314.0,20.0
4182,1803.0,47.0
4183,1747.0,65.0
4184,1224.0,58.0
4185,877.0,28.0
4186,1170.0,-2.0
4187,1611.0,-19.0
4188,1446.0,-27.0
4189,917.0,-32.0
4190,697.0,-27.0
4191,1010.0,7.0
4192,1484.0,80.0
4193,1499.0,170.0
4194,1036.0,249.0
4195,743.0,300.0
4196,1002.0,328.0
4197,1439.0,334.0
4198,1471.0,307.0
4199,1015.0,234.0
4200,785.0,125.0
4201,1104.0,10.0
4202,1554.0,-83.0
4203,1495.0,-154.0
4204,1011.0,-209.0
4205,780.0,-245.0
4206,1112.0,-246.0
4207,1578.0,-206.0
4208,1140.0,-74.0
4209,807.0,-19.0
4210,1048.0,30.0
4211,1519.0,79.0
4212,1611.0,114.0
4213,1217.0,117.0
4214,912.0,90.0
4215,1147.0,57.0
4216,1610.0,40.0
4217,1669.0,37.0
4218,1260.0,34.0
4219,910.0,24.0
4220,1139.0,17.0
4221,1643.0,21.0
4222,1746.0,28.0
4223,1333.0,25.0
4224,1008.0,13.0
4225,1259.0,8.0
4226,1801.0,24.0
4227,1898.0,49.0
4228,1418.0,63.0
4229,1012.0,57.0
4230,1159.0,46.0
4231,1652.0,47.0
4232,978.0,56.0
4233,1175.0,54.0
4234,1647.0,69.0
4235,1755.0,93.0
4236,1345.0,107.0
4237,948.0,100.0
4238,1087.0,84.0
4239,1563.0,72.0
4240,1737.0,59.0
4241,1357.0,30.0
4242,920.0,-15.0
4243,1008.0,-60.0
4244,1429.0,-87.0
4245,1667.0,-96.0
4246,1295.0,-107.0
4247,882.0,-126.0
4248,933.0,-141.0
4249,1401.0,-135.0
4250,1556.0,-112.0
4251,1172.0,-91.0
4252,743.0,-87.0
4253,807.0,-92.0
4254,1270.0,-94.0
4255,1121.0,-107.0
4256,639.0,-134.0
4257,618.0,-162.0
4258,1107.0,-172.0
4259,1463.0,-168.0
4260,1192.0,-168.0
4261,741.0,-184.0
4262,737.0,-206.0
4263,1127.0,-215.0
4264,1367.0,-210.0
4265,1074.0,-207.0
4266,653.0,-219.0
4267,647.0,-238.0
4268,1130.0,-244.0
4269,1431.0,-234.0
4270,1097.0,-216.0
4271,553.0,-200.0
4272,561.0,-180.0
4273,1068.0,-145.0
4274,1413.0,-101.0
4275,1152.0,-70.0
4276,656.0,-64.0
4277,1309.0,-58.0
4278,1110.0,-46.0
4279,661.0,-52.0
4280,599.0,-71.0
4281,1026.0,-83.0
4282,1398.0,-78.0
4283,1209.0,-66.0
4284,698.0,-59.0
4285,565.0,-51.0
4286,1080.0,-32.0
4287,1516.0,-4.0
4288,1335.0,15.0
4289,833.0,14.0
4290,679.0,4.0
4291,1053.0,7.0
4292,1408.0,32.0
4293,1237.0,62.0
4294,815.0,77.0
4295,750.0,80.0
4296,1182.0,90.0
4297,1566.0,118.0
4298,1385.0,151.0
4299,858.0,174.0
4300,1155.0,195.0
4301,1558.0,204.0
4302,1432.0,200.0
4303,945.0,175.0
4304,749.0,141.0
4305,1074.0,125.0
4306,1482.0,136.0
4307,1460.0,157.0
4308,1101.0,166.0
4309,917.0,162.0
4310,1250.0,161.0
4311,1630.0,172.0
4312,1474.0,186.0
4313,943.0,189.0
4314,745.0,178.0
4315,1153.0,166.0
4316,1615.0,160.0
4317,1536.0,153.0
4318,1040.0,136.0
4319,840.0,119.0
4320,1166.0,121.0
4321,1605.0,147.0
4322,1597.0,177.0
4323,941.0,168.0
4324,1250.0,143.0
4325,1746.0,126.0
4326,1715.0,114.0
4327,1195.0,96.0
4328,928.0,71.0
4329,1272.0,53.0
4330,1714.0,51.0
4331,1675.0,57.0
4332,948.0,48.0
4333,1135.0,5.0
4334,1526.0,-19.0
4335,1530.0,-32.0
4336,1139.0,-48.0
4337,948.0,-71.0
4338,1216.0,-85.0
4339,1697.0,-78.0
4340,1771.0,-59.0
4341,1356.0,-46.0
4342,1009.0,-46.0
4343,1258.0,-50.0
4344,1831.0,-47.0
4345,2047.0,-46.0
4346,1630.0,-60.0
4347,1218.0,-88.0
4348,1329.0,-109.0
4349,1754.0,-104.0
4350,1824.0,-77.0
4351,1356.0,-48.0
4352,944.0,-26.0
4353,1052.0,-2.0
4354,1524.0,36.0
4355,1713.0,88.0
4356,1317.0,134.0
4357,870.0,164.0
4358,979.0,182.0
4359,1561.0,176.0
4360,1192.0,122.0
4361,742.0,28.0
4362,815.0,-78.0
4363,1328.0,-168.0
4364,1557.0,-231.0
4365,1197.0,-280.0
4366,782.0,-325.0
4367,922.0,-357.0
4368,1412.0,-362.0
4369,1627.0,-344.0
4370,1255.0,-320.0
4371,803.0,-284.0
4372,1281.0,-252.0
4373,1499.0,-212.0
4374,1216.0,-183.0
4375,825.0,-174.0
4376,882.0,-169.0
4377,1319.0,-151.0
4378,1532.0,-118.0
4379,1223.0,-87.0
4380,833.0,-74.0
4381,821.0,-72.0
4382,1218.0,-69.0
4383,1515.0,-62.0
4384,1324.0,-66.0
4385,868.0,-86.0
4386,856.0,-108.0
4387,1320.0,-114.0
4388,1621.0,-103.0
4389,1338.0,-91.0
4390,875.0,-90.0
4391,868.0,-92.0
4392,1307.0,-82.0
4393,1617.0,-56.0
4394,1378.0,-30.0
4395,837.0,-16.0
4396,719.0,-10.0
4397,1253.0,2.0
4398,1663.0,24.0
4399,1431.0,41.0
4400,910.0,41.0
4401,812.0,35.0
4402,1283.0,40.0
4403,1609.0,59.0
4404,1370.0,73.0
4405,887.0,66.0
4406,786.0,42.0
4407,1200.0,22.0
4408,1536.0,17.0
4409,1372.0,16.0
4410,882.0,9.0
4411,717.0,3.0
4412,1107.0,11.0
4413,1457.0,37.0
4414,1263.0,59.0
4415,762.0,62.0
4416,568.0,50.0
4417,955.0,42.0
4418,1415.0,45.0
4419,1316.0,48.0
4420,813.0,34.0
4421,603.0,8.0
4422,949.0,-13.0
4423,1326.0,-21.0
4424,1205.0,-28.0
4425,741.0,-47.0
4426,531.0,-74.0
4427,896.0,-90.0
4428,1377.0,-86.0
4429,1290.0,-72.0
4430,776.0,-63.0
4431,523.0,-60.0
4432,894.0,-50.0
4433,1333.0,-27.0
4434,1189.0,-5.0
4435,716.0,-1.0
4436,557.0,-11.0
4437,1383.0,0.0
4438,1320.0,20.0
4439,822.0,29.0
4440,556.0,23.0
4441,878.0,19.0
4442,1310.0,25.0
4443,1285.0,33.0
4444,817.0,31.0
4445,500.0,22.0
4446,812.0,24.0
4447,1296.0,46.0
4448,1304.0,75.0
4449,861.0,91.0
4450,573.0,89.0
4451,858.0,85.0
4452,1286.0,92.0
4453,1295.0,102.0
4454,946.0,98.0
4455,707.0,80.0
4456,950.0,64.0
4457,1371.0,61.0
4458,1413.0,64.0
4459,990.0,58.0
4460,655.0,43.0
4461,888.0,35.0
4462,1385.0,47.0
4463,1453.0,72.0
4464,998.0,94.0
4465,624.0,108.0
4466,890.0,125.0
4467,1436.0,155.0
4468,1557.0,186.0
4469,1106.0,200.0
4470,712.0,190.0
4471,888.0,172.0
4472,1325.0,161.0
4473,1458.0,154.0
4474,1065.0,139.0
4475,689.0,111.0
4476,850.0,86.0
4477,1362.0,81.0
4478,1541.0,90.0
4479,1119.0,97.0
4480,724.0,93.0
4481,876.0,90.0
4482,1377.0,98.0
4483,1535.0,109.0
4484,1124.0,106.0
4485,723.0,82.0
4486,867.0,54.0
4487,1349.0,42.0
4488,1522.0,44.0
4489,1196.0,43.0
4490,816.0,31.0
4491,853.0,19.0
4492,1328.0,24.0
4493,1576.0,41.0
4494,1236.0,54.0
4495,796.0,52.0
4496,1307.0,45.0
4497,1577.0,52.0
4498,1264.0,50.0
4499,795.0,31.0
4500,828.0,10.0
4501,1311.0,4.0
4502,1567.0,13.0
4503,1236.0,19.0
4504,722.0,13.0
4505,693.0,1.0
4506,1127.0,0.0
4507,1424.0,7.0
4508,1147.0,11.0
4509,707.0,-1.0
4510,743.0,-20.0
4511,1178.0,-28.0
4512,1452.0,-23.0
4513,1151.0,-22.0
4514,676.0,-39.0
4515,686.0,-68.0
4516,1123.0,-91.0
4517,1425.0,-105.0
4518,1167.0,-120.0
4519,705.0,-145.0
4520,667.0,-166.0
4521,1122.0,-168.0
4522,1434.0,-148.0
4523,1165.0,-126.0
4524,641.0,-116.0
4525,668.0,-113.0
4526,1280.0,-101.0
4527,1793.0,-77.0
4528,1661.0,-56.0
4529,1225.0,-50.0
4530,1457.0,-57.0
4531,1731.0,-51.0
4532,1522.0,-54.0
4533,1014.0,-72.0
4534,847.0,-92.0
4535,1198.0,-86.0
4536,1513.0,-38.0
4537,1369.0,35.0
4538,928.0,117.0
4539,805.0,197.0
4540,1181.0,275.0
4541,1549.0,338.0
4542,1349.0,366.0
4543,829.0,340.0
4544,664.0,270.0
4545,1053.0,182.0
4546,1458.0,91.0
4547,1324.0,-2.0
4548,843.0,-106.0
4549,690.0,-206.0
4550,1105.0,-277.0
4551,1539.0,-305.0
4552,1455.0,-299.0
4553,773.0,-247.0
4554,1111.0,-202.0
4555,1520.0,-146.0
4556,1431.0,-98.0
4557,929.0,-75.0
4558,760.0,-75.0
4559,1119.0,-75.0
4560,1549.0,-63.0
4561,1487.0,-44.0
4562,1022.0,-32.0
4563,804.0,-26.0
4564,1134.0,-12.0
4565,1573.0,15.0
4566,1535.0,39.0
4567,1088.0,43.0
4568,825.0,25.0
4569,1134.0,5.0
4570,1569.0,-3.0
4571,1552.0,-7.0
4572,1109.0,-19.0
4573,828.0,-37.0
4574,1137.0,-46.0
4575,1591.0,-35.0
4576,1093.0,1.0
4577,812.0,6.0
4578,1096.0,12.0
4579,1545.0,28.0
4580,1530.0,42.0
4581,1060.0,38.0
4582,788.0,19.0
4583,1029.0,0.0
4584,1474.0,-3.0
4585,1528.0,0.0
4586,1062.0,-3.0
4587,736.0,-20.0
4588,936.0,-33.0
4589,1379.0,-33.0
4590,1458.0,-27.0
4591,1034.0,-32.0
4592,674.0,-49.0
4593,882.0,-65.0
4594,1367.0,-67.0
4595,1474.0,-60.0
4596,1001.0,-62.0
4597,559.0,-77.0
4598,722.0,-91.0
4599,1369.0,-84.0
4600,924.0,-86.0
4601,456.0,-100.0
4602,611.0,-111.0
4603,1163.0,-106.0
4604,1291.0,-89.0
4605,877.0,-81.0
4606,500.0,-90.0
4607,646.0,-106.0
4608,1117.0,-110.0
4609,1330.0,-107.0
4610,994.0,-112.0
4611,539.0,-132.0
4612,628.0,-153.0
4613,1103.0,-159.0
4614,1312.0,-152.0
4615,934.0,-147.0
4616,523.0,-151.0
4617,607.0,-149.0
4618,1120.0,-126.0
4619,1356.0,-83.0
4620,1044.0,-42.0
4621,1403.0,48.0
4622,1099.0,59.0
4623,650.0,49.0
4624,695.0,30.0
4625,1181.0,24.0
4626,1450.0,33.0
4627,1163.0,42.0
4628,704.0,43.0
4629,720.0,42.0
4630,1181.0,55.0
4631,1462.0,81.0
4632,1150.0,105.0
4633,704.0,115.0
4634,731.0,118.0
4635,1203.0,131.0
4636,1497.0,153.0
4637,1240.0,167.0
4638,737.0,162.0
4639,642.0,147.0
4640,1095.0,139.0
4641,1501.0,143.0
4642,1274.0,143.0
4643,800.0,130.0
4644,731.0,111.0
4645,1128.0,105.0
4646,1445.0,115.0
4647,1165.0,123.0
4648,657.0,115.0
4649,616.0,97.0
4650,1090.0,86.0
4651,1463.0,88.0
4652,1260.0,92.0
4653,767.0,87.0
4654,658.0,79.0
4655,1074.0,81.0
4656,1490.0,92.0
4657,1352.0,94.0
4658,834.0,72.0
4659,695.0,36.0
4660,1117.0,10.0
4661,1536.0,6.0
4662,1448.0,13.0
4663,1035.0,15.0
4664,933.0,11.0
4665,1295.0,17.0
4666,1671.0,37.0
4667,1482.0,59.0
4668,1000.0,70.0
4669,930.0,74.0
4670,1384.0,85.0
4671,1766.0,110.0
4672,1592.0,135.0
4673,1083.0,147.0
4674,887.0,149.0
4675,1337.0,158.0
4676,1792.0,178.0
4677,1662.0,197.0
4678,1175.0,196.0
4679,992.0,180.0
4680,1328.0,167.0
4681,1692.0,167.0
4682,1598.0,168.0
4683,1092.0,153.0
4684,937.0,122.0
4685,1337.0,94.0
4686,1794.0,79.0
4687,1723.0,70.0
4688,1184.0,56.0
4689,934.0,40.0
4690,1319.0,35.0
4691,1821.0,43.0
4692,1756.0,45.0
4693,1207.0,26.0
4694,973.0,-9.0
4695,1336.0,-37.0
4696,1832.0,-42.0
4697,1821.0,-32.0
4698,1334.0,-29.0
4699,1019.0,-35.0
4700,1343.0,-38.0
4701,1860.0,-27.0
4702,1936.0,-12.0
4703,1553.0,-9.0
4704,1323.0,-18.0
4705,1769.0,-22.0
4706,2225.0,-13.0
4707,2198.0,-1.0
4708,1614.0,-5.0
4709,1221.0,-26.0
4710,1488.0,-45.0
4711,2032.0,-45.0
4712,2079.0,-30.0
4713,1512.0,-13.0
4714,1179.0,7.0
4715,1543.0,46.0
4716,2121.0,109.0
4717,2120.0,175.0
4718,1524.0,213.0
4719,1125.0,209.0
4720,1385.0,176.0
4721,1964.0,133.0
4722,2118.0,80.0
4723,1615.0,9.0
4724,1243.0,-72.0
4725,1461.0,-141.0
4726,2023.0,-180.0
4727,2152.0,-197.0
4728,1632.0,-214.0
4729,1301.0,-235.0
4730,2183.0,-183.0
4731,1631.0,-147.0
4732,1220.0,-128.0
4733,1483.0,-114.0
4734,2087.0,-95.0
4735,2224.0,-77.0
4736,1733.0,-76.0
4737,1268.0,-90.0
4738,1448.0,-98.0
4739,2061.0,-82.0
4740,2219.0,-53.0
4741,1724.0,-38.0
4742,1289.0,-49.0
4743,1503.0,-73.0
4744,2086.0,-91.0
4745,2228.0,-100.0
4746,1838.0,-114.0
4747,1385.0,-138.0
4748,1580.0,-155.0
4749,2148.0,-153.0
4750,2232.0,-139.0
4751,1857.0,-132.0
4752,1678.0,-147.0
4753,2219.0,-133.0
4754,2232.0,-104.0
4755,1985.0,-81.0
4756,1524.0,-75.0
4757,1663.0,-75.0
4758,2221.0,-63.0
4759,2229.0,-43.0
4760,2114.0,-32.0
4761,1605.0,-36.0
4762,1627.0,-41.0
4763,2190.0,-34.0
4764,2227.0,-16.0
4765,2105.0,-7.0
4766,1598.0,-15.0
4767,1624.0,-27.0
4768,2178.0,-30.0
4769,2222.0,-21.0
4770,2026.0,-17.0
4771,1501.0,-23.0
4772,1554.0,-33.0
4773,2128.0,-34.0
4774,2224.0,-28.0
4775,1971.0,-30.0
4776,1470.0,-46.0
4777,1516.0,-66.0
4778,2071.0,-75.0
4779,2226.0,-71.0
4780,1925.0,-73.0
4781,1425.0,-90.0
4782,1399.0,-112.0
4783,1924.0,-124.0
4784,2226.0,-122.0
4785,2015.0,-120.0
4786,1834.0,-138.0
4787,2232.0,-123.0
4788,1990.0,-113.0
4789,1368.0,-120.0
4790,1271.0,-134.0
4791,1808.0,-137.0
4792,2209.0,-124.0
4793,1935.0,-111.0
4794,1344.0,-111.0
4795,1245.0,-118.0
4796,1742.0,-114.0
4797,2196.0,-95.0
4798,1986.0,-80.0
4799,1347.0,-83.0
4800,1133.0,-96.0
4801,1582.0,-99.0
4802,2119.0,-85.0
4803,1945.0,-71.0
4804,1371.0,-75.0
4805,1190.0,-91.0
4806,1600.0,-96.0
4807,1400.0,-56.0
4808,1193.0,-64.0
4809,1582.0,-66.0
4810,2029.0,-55.0
4811,1917.0,-41.0
4812,1343.0,-41.0
4813,1076.0,-50.0
4814,1434.0,-49.0
4815,1888.0,-31.0
4816,1845.0,-10.0
4817,1387.0,-2.0
4818,1111.0,-6.0
4819,1397.0,-2.0
4820,1851.0,20.0
4821,1843.0,47.0
4822,1369.0,57.0
4823,1091.0,45.0
4824,1409.0,27.0
4825,1879.0,18.0
4826,1889.0,13.0
4827,1418.0,1.0
4828,1122.0,-13.0
4829,1394.0,-18.0
4830,1842.0,-2.0
4831,1869.0,20.0
4832,1382.0,33.0
4833,1088.0,35.0
4834,1407.0,43.0
4835,1936.0,69.0
4836,1960.0,104.0
4837,1495.0,128.0
4838,1188.0,136.0
4839,1400.0,138.0
4840,1904.0,146.0
4841,1981.0,154.0
4842,1512.0,148.0
4843,1163.0,129.0
4844,1391.0,117.0
4845,1894.0,126.0
4846,1990.0,148.0
4847,1505.0,165.0
4848,1117.0,170.0
4849,1341.0,174.0
4850,1813.0,191.0
4851,1946.0,211.0
4852,1548.0,219.0
4853,1147.0,209.0
4854,1283.0,197.0
4855,1749.0,196.0
4856,1901.0,200.0
4857,1500.0,191.0
4858,1071.0,163.0
4859,1229.0,132.0
4860,1706.0,117.0
4861,1898.0,118.0
4862,1453.0,117.0
4863,1015.0,107.0
4864,1124.0,98.0
4865,1579.0,102.0
4866,1445.0,112.0
4867,1003.0,95.0
4868,1105.0,75.0
4869,1625.0,69.0
4870,1829.0,76.0
4871,1456.0,78.0
4872,989.0,63.0
4873,1088.0,41.0
4874,1570.0,29.0
4875,1775.0,27.0
4876,1399.0,22.0
4877,1069.0,8.0
4878,1252.0,55.0
4879,1252.0,52.0
4880,1670.0,57.0
4881,1928.0,69.0
4882,1555.0,75.0
4883,1006.0,70.0
4884,962.0,70.0
4885,1415.0,94.0
4886,1732.0,142.0
4887,1450.0,195.0
4888,1004.0,233.0
4889,914.0,257.0
4890,1319.0,275.0
4891,1635.0,283.0
4892,1428.0,263.0
4893,935.0,207.0
4894,882.0,126.0
4895,1305.0,44.0
4896,1651.0,-26.0
4897,1461.0,-92.0
4898,996.0,-159.0
4899,894.0,-212.0
4900,1282.0,-231.0
4901,1621.0,-214.0
4902,1427.0,-177.0
4903,1003.0,-141.0
4904,968.0,-108.0
4905,1394.0,-68.0
4906,1737.0,-20.0
4907,1536.0,19.0
4908,1008.0,36.0
4909,870.0,33.0
4910,1321.0,28.0
4911,1705.0,30.0
4912,1520.0,29.0
4913,1039.0,20.0
4914,865.0,9.0
4915,1221.0,15.0
4916,1577.0,41.0
4917,1505.0,68.0
4918,1104.0,77.0
4919,988.0,70.0
4920,1315.0,62.0
4921,1662.0,63.0
4922,1511.0,65.0
4923,1069.0,54.0
4924,950.0,32.0
4925,1336.0,15.0
4926,1764.0,7.0
4927,1625.0,1.0
4928,1199.0,-11.0
4929,1046.0,-22.0
4930,1421.0,-15.0
4931,1858.0,14.0
4932,1703.0,48.0
4933,1212.0,67.0
4934,1008.0,69.0
4935,1375.0,71.0
4936,1777.0,84.0
4937,1691.0,101.0
4938,1232.0,110.0
4939,1016.0,111.0
4940,1323.0,117.0
4941,1662.0,133.0
4942,1566.0,146.0
4943,1110.0,143.0
4944,888.0,125.0
4945,1195.0,110.0
4946,1606.0,105.0
4947,1537.0,100.0
4948,1011.0,80.0
4949,664.0,47.0
4950,968.0,16.0
4951,1453.0,-2.0
4952,1451.0,-19.0
4953,985.0,-47.0
4954,682.0,-83.0
4955,943.0,-109.0
4956,1416.0,-116.0
4957,1461.0,-113.0
4958,984.0,-122.0
4959,662.0,-147.0
4960,923.0,-175.0
4961,1391.0,-191.0
4962,1414.0,-198.0
4963,945.0,-206.0
4964,656.0,-217.0
4965,920.0,-215.0
4966,1381.0,-192.0
4967,1426.0,-160.0
4968,972.0,-138.0
4969,589.0,-132.0
4970,1433.0,-82.0
4971,1010.0,-70.0
4972,617.0,-75.0
4973,771.0,-84.0
4974,1206.0,-81.0
4975,1336.0,-71.0
4976,982.0,-71.0
4977,663.0,-84.0
4978,813.0,-99.0
4979,1236.0,-98.0
4980,1329.0,-86.0
4981,904.0,-78.0
4982,538.0,-80.0
4983,719.0,-83.0
4984,1212.0,-75.0
4985,1376.0,-61.0
4986,976.0,-55.0
4987,552.0,-60.0
4988,649.0,-62.0
4989,1151.0,-47.0
4990,1350.0,-23.0
4991,927.0,-9.0
4992,592.0,-31.0
4993,1083.0,-36.0
4994,1328.0,-28.0
4995,985.0,-21.0
4996,526.0,-23.0
4997,556.0,-25.0
4998,1023.0,-18.0
4999,1266.0,-4.0
5000,917.0,-1.0
5001,475.0,-14.0
5002,554.0,-29.0
5003,1028.0,-28.0
5004,1225.0,-13.0
5005,875.0,-1.0
5006,467.0,-4.0
5007,572.0,-13.0
5008,1077.0,-13.0
5009,1351.0,-2.0
5010,1016.0,5.0
5011,530.0,0.0
5012,534.0,-9.0
5013,1030.0,-6.0
5014,1338.0,6.0
5015,1081.0,14.0
5016,643.0,7.0
5017,620.0,-2.0
5018,1033.0,4.0
5019,1321.0,30.0
5020,1057.0,58.0
5021,600.0,75.0
5022,515.0,84.0
5023,958.0,98.0
5024,1287.0,117.0
5025,1047.0,130.0
5026,584.0,127.0
5027,588.0,118.0
5028,1037.0,118.0
5029,1310.0,127.0
5030,1057.0,128.0
5031,606.0,108.0
5032,562.0,75.0
5033,1004.0,50.0
5034,1355.0,41.0
5035,1113.0,37.0
5036,624.0,26.0
5037,541.0,14.0
5038,996.0,15.0
5039,1355.0,31.0
5040,1153.0,47.0
5041,640.0,52.0
5042,531.0,49.0
5043,1027.0,56.0
5044,1523.0,75.0
5045,1388.0,91.0
5046,946.0,90.0
5047,885.0,76.0
5048,1327.0,66.0
5049,1671.0,66.0
5050,839.0,49.0
5051,602.0,28.0
5052,968.0,23.0
5053,1374.0,43.0
5054,1273.0,77.0
5055,775.0,112.0
5056,613.0,148.0
5057,984.0,198.0
5058,1346.0,257.0
5059,1201.0,301.0
5060,696.0,304.0
5061,493.0,265.0
5062,859.0,202.0
5063,1237.0,132.0
5064,1199.0,56.0
5065,714.0,-28.0
5066,467.0,-112.0
5067,833.0,-173.0
5068,1302.0,-202.0
5069,1257.0,-210.0
5070,800.0,-215.0
5071,552.0,-218.0
5072,892.0,-203.0
5073,1298.0,-125.0
5074,804.0,-99.0
5075,541.0,-93.0
5076,892.0,-94.0
5077,1378.0,-89.0
5078,1369.0,-82.0
5079,895.0,-81.0
5080,591.0,-84.0
5081,864.0,-75.0
5082,1356.0,-47.0
5083,1364.0,-14.0
5084,912.0,0.0
5085,628.0,-3.0
5086,906.0,-12.0
5087,1407.0,-10.0
5088,1409.0,-2.0
5089,957.0,-4.0
5090,604.0,-18.0
5091,885.0,-30.0
5092,1416.0,-29.0
5093,1476.0,-21.0
5094,1031.0,-22.0
5095,648.0,-33.0
5096,795.0,-38.0
5097,1291.0,-26.0
5098,1434.0,-6.0
5099,1044.0,0.0
5100,653.0,-10.0
5101,803.0,-23.0
5102,1288.0,-20.0
5103,1419.0,-7.0
5104,988.0,0.0
5105,599.0,-6.0
5106,765.0,-18.0
5107,1220.0,-22.0
5108,1352.0,-23.0
5109,973.0,-33.0
5110,574.0,-56.0
5111,704.0,-75.0
5112,1133.0,-77.0
5113,1247.0,-67.0
5114,851.0,-64.0
5115,443.0,-77.0
5116,589.0,-94.0
5117,1064.0,-100.0
5118,1267.0,-94.0
5119,868.0,-92.0
5120,521.0,-114.0
5121,1007.0,-119.0
5122,1150.0,-120.0
5123,835.0,-131.0
5124,481.0,-157.0
5125,573.0,-183.0
5126,1040.0,-191.0
5127,1239.0,-182.0
5128,878.0,-173.0
5129,423.0,-174.0
5130,484.0,-178.0
5131,445.0,-129.0
5132,996.0,-103.0
5133,1289.0,-66.0
5134,968.0,-38.0
5135,483.0,-31.0
5136,459.0,-37.0
5137,902.0,-38.0
5138,1207.0,-31.0
5139,920.0,-28.0
5140,462.0,-38.0
5141,474.0,-53.0
5142,956.0,-53.0
5143,1243.0,-37.0
5144,940.0,-20.0
5145,438.0,-13.0
5146,407.0,-10.0
5147,896.0,2.0
5148,1183.0,24.0
5149,916.0,39.0
5150,428.0,35.0
5151,351.0,24.0
5152,781.0,23.0
5153,1126.0,35.0
5154,927.0,44.0
5155,420.0,38.0
5156,317.0,21.0
5157,736.0,13.0
5158,1054.0,19.0
5159,861.0,26.0
5160,402.0,22.0
5161,309.0,10.0
5162,713.0,4.0
5163,1045.0,8.0
5164,858.0,10.0
5165,399.0,0.0
5166,278.0,-16.0
5167,709.0,-22.0
5168,1095.0,-11.0
5169,955.0,1.0
5170,506.0,2.0
5171,355.0,-4.0
5172,751.0,-4.0
5173,1112.0,9.0
5174,884.0,24.0
5175,391.0,26.0
5176,298.0,19.0
5177,768.0,19.0
5178,1199.0,36.0
5179,1079.0,59.0
5180,595.0,75.0
5181,393.0,86.0
5182,772.0,103.0
5183,1232.0,126.0
5184,1148.0,140.0
5185,650.0,131.0
5186,426.0,106.0
5187,794.0,89.0
5188,1239.0,93.0
5189,1200.0,108.0
5190,742.0,119.0
5191,472.0,124.0
5192,766.0,135.0
5193,1168.0,159.0
5194,1073.0,184.0
5195,579.0,195.0
5196,350.0,193.0
5197,667.0,193.0
5198,1122.0,204.0
5199,1107.0,214.0
5200,623.0,207.0
5201,364.0,181.0
5202,666.0,155.0
5203,1137.0,138.0
5204,1196.0,123.0
5205,733.0,96.0
5206,351.0,56.0
5207,1079.0,2.0
5208,1136.0,-2.0
5209,743.0,-11.0
5210,442.0,-25.0
5211,698.0,-30.0
5212,1186.0,-15.0
5213,1285.0,13.0
5214,950.0,36.0
5215,716.0,47.0
5216,1009.0,55.0
5217,1539.0,67.0
5218,1639.0,77.0
5219,1209.0,70.0
5220,811.0,47.0
5221,954.0,26.0
5222,1341.0,25.0
5223,1373.0,42.0
5224,919.0,64.0
5225,585.0,87.0
5226,778.0,124.0
5227,1277.0,186.0
5228,1373.0,264.0
5229,945.0,330.0
5230,529.0,368.0
5231,613.0,378.0
5232,1100.0,363.0
5233,1280.0,321.0
5234,932.0,242.0
5235,588.0,135.0
5236,752.0,26.0
5237,1212.0,-59.0
5238,1401.0,-118.0
5239,742.0,-28.0
5240,1253.0,-34.0
5241,1507.0,-32.0
5242,1192.0,-36.0
5243,802.0,-53.0
5244,853.0,-74.0
5245,1327.0,-83.0
5246,1557.0,-80.0
5247,1251.0,-80.0
5248,834.0,-91.0
5249,884.0,-99.0
5250,1367.0,-92.0
5251,1638.0,-67.0
5252,1302.0,-42.0
5253,845.0,-28.0
5254,893.0,-17.0
5255,1374.0,0.0
5256,1643.0,23.0
5257,1384.0,35.0
5258,934.0,28.0
5259,946.0,12.0
5260,1384.0,7.0
5261,1679.0,14.0
5262,1446.0,20.0
5263,976.0,11.0
5264,945.0,-5.0
5265,1397.0,-14.0
5266,1429.0,-12.0
5267,935.0,-20.0
5268,863.0,-30.0
5269,1249.0,-27.0
5270,1567.0,-12.0
5271,1406.0,0.0
5272,952.0,-2.0
5273,808.0,-14.0
5274,1217.0,-18.0
5275,1584.0,-11.0
5276,1348.0,-8.0
5277,875.0,-23.0
5278,744.0,-53.0
5279,1136.0,-83.0
5280,1490.0,-103.0
5281,1338.0,-123.0
5282,950.0,-150.0
5283,810.0,-178.0
5284,1188.0,-193.0
5285,1592.0,-188.0
5286,1407.0,-181.0
5287,857.0,-184.0
5288,1621.0,-200.0
5289,1517.0,-189.0
5290,1050.0,-184.0
5291,883.0,-184.0
5292,1277.0,-173.0
5293,1728.0,-147.0
5294,1595.0,-122.0
5295,1113.0,-115.0
5296,957.0,-124.0
5297,1340.0,-132.0
5298,1776.0,-124.0
5299,1684.0,-106.0
5300,1206.0,-91.0
5301,1023.0,-78.0
5302,1390.0,-55.0
5303,1807.0,-17.0
5304,1765.0,19.0
5305,1320.0,41.0
5306,1098.0,49.0
5307,1423.0,60.0
5308,1837.0,85.0
5309,1808.0,109.0
5310,1402.0,116.0
5311,1109.0,104.0
5312,1383.0,88.0
5313,1828.0,82.0
5314,1774.0,82.0
5315,1272.0,76.0
5316,1006.0,67.0
5317,1303.0,66.0
5318,1751.0,81.0
5319,1719.0,99.0
5320,1265.0,104.0
5321,975.0,93.0
5322,1239.0,80.0
5323,1665.0,74.0
5324,1667.0,67.0
5325,1219.0,44.0
5326,947.0,6.0
5327,1187.0,-31.0
5328,1673.0,-55.0
5329,1695.0,-69.0
5330,1225.0,-87.0
5331,945.0,-111.0
5332,1196.0,-129.0
5333,1660.0,-130.0
5334,1231.0,-124.0
5335,855.0,-133.0
5336,1066.0,-138.0
5337,1584.0,-127.0
5338,1687.0,-107.0
5339,1224.0,-96.0
5340,895.0,-99.0
5341,1090.0,-100.0
5342,1611.0,-89.0
5343,1791.0,-69.0
5344,1386.0,-61.0
5345,1005.0,-69.0
5346,1145.0,-83.0
5347,1645.0,-88.0
5348,1832.0,-87.0
5349,1455.0,-95.0
5350,1024.0,-112.0
5351,1111.0,-124.0
5352,1592.0,-114.0
5353,1798.0,-85.0
5354,1424.0,-55.0
5355,1043.0,-33.0
5356,1126.0,-12.0
5357,1593.0,20.0
5358,1762.0,61.0
5359,1372.0,90.0
5360,895.0,95.0
5361,983.0,86.0
5362,1511.0,79.0
5363,1786.0,73.0
5364,1456.0,60.0
5365,965.0,33.0
5366,988.0,6.0
5367,1420.0,-3.0
5368,1689.0,0.0
5369,1424.0,-1.0
5370,1023.0,-17.0
5371,1015.0,-40.0
5372,1423.0,-51.0
5373,1659.0,-44.0
5374,1397.0,-33.0
5375,1020.0,-31.0
5376,1078.0,-32.0
5377,1580.0,-25.0
5378,1959.0,-11.0
5379,1704.0,-1.0
5380,1235.0,-4.0
5381,1928.0,-2.0
5382,2197.0,15.0
5383,1685.0,28.0
5384,1066.0,24.0
5385,1076.0,15.0
5386,1569.0,22.0
5387,1921.0,55.0
5388,1659.0,101.0
5389,1160.0,150.0
5390,1085.0,203.0
5391,1560.0,269.0
5392,1930.0,337.0
5393,1732.0,380.0
5394,1263.0,376.0
5395,1155.0,332.0
5396,1592.0,269.0
5397,1959.0,202.0
5398,1760.0,126.0
5399,1275.0,41.0
5400,1159.0,-35.0
5401,1576.0,-83.0
5402,2020.0,-94.0
5403,1857.0,-85.0
5404,1234.0,-49.0
5405,1662.0,-7.0
5406,2061.0,52.0
5407,1869.0,109.0
5408,1368.0,139.0
5409,1252.0,139.0
5410,1656.0,128.0
5411,2074.0,120.0
5412,1916.0,111.0
5413,1373.0,93.0
5414,1229.0,73.0
5415,1673.0,67.0
5416,2137.0,77.0
5417,1944.0,91.0
5418,1354.0,91.0
5419,1148.0,79.0
5420,1591.0,72.0
5421,2113.0,77.0
5422,2004.0,80.0
5423,1407.0,68.0
5424,1206.0,45.0
5425,1631.0,28.0
5426,2124.0,27.0
5427,2011.0,30.0
5428,1454.0,21.0
5429,1231.0,0.0
5430,1637.0,-16.0
5431,2155.0,-16.0
5432,2028.0,-11.0
5433,1395.0,-15.0
5434,1135.0,-28.0
5435,1537.0,-33.0
5436,2112.0,-19.0
5437,2071.0,-2.0
5438,1452.0,0.0
5439,1124.0,-8.0
5440,1457.0,-11.0
5441,1997.0,1.0
5442,2085.0,16.0
5443,1562.0,12.0
5444,1199.0,-13.0
5445,1443.0,-41.0
5446,1939.0,-54.0
5447,1992.0,-58.0
5448,1426.0,-70.0
5449,1072.0,-91.0
5450,1370.0,-107.0
5451,1912.0,-105.0
5452,1906.0,-92.0
5453,1392.0,-85.0
5454,1021.0,-87.0
5455,1242.0,-85.0
5456,1771.0,-70.0
5457,1899.0,-53.0
5458,1473.0,-56.0
5459,1053.0,-82.0
5460,1176.0,-112.0
5461,1681.0,-128.0
5462,1039.0,-162.0
5463,1240.0,-184.0
5464,1758.0,-190.0
5465,1911.0,-181.0
5466,1487.0,-171.0
5467,1040.0,-167.0
5468,1169.0,-159.0
5469,1671.0,-139.0
5470,1843.0,-115.0
5471,1446.0,-102.0
5472,1030.0,-106.0
5473,1156.0,-109.0
5474,1664.0,-94.0
5475,1889.0,-62.0
5476,1560.0,-34.0
5477,1148.0,-22.0
5478,1203.0,-22.0
5479,1669.0,-17.0
5480,1929.0,-8.0
5481,1659.0,-8.0
5482,1264.0,-21.0
5483,1363.0,-36.0
5484,1615.0,-7.0
5485,1187.0,-2.0
5486,1283.0,2.0
5487,1776.0,21.0
5488,2048.0,54.0
5489,1690.0,87.0
5490,1187.0,111.0
5491,1201.0,131.0
5492,1696.0,46.0
5493,1241.0,26.0
5494,1194.0,2.0
5495,1930.0,1.0
5496,1688.0,11.0
5497,1226.0,13.0
5498,1165.0,12.0
5499,1616.0,24.0
5500,1924.0,48.0
5501,1711.0,70.0
5502,1248.0,74.0
5503,1138.0,66.0
5504,1576.0,61.0
5505,1992.0,64.0
5506,1784.0,63.0
5507,1227.0,47.0
5508,1113.0,22.0
5509,1526.0,4.0
5510,1902.0,0.0
5511,1711.0,0.0
5512,1194.0,-8.0
5513,994.0,-18.0
5514,1346.0,-14.0
5515,1752.0,6.0
5516,1635.0,28.0
5517,1204.0,36.0
5518,1041.0,30.0
5519,1400.0,25.0
5520,1799.0,28.0
5521,1651.0,27.0
5522,1174.0,9.0
5523,1027.0,-23.0
5524,1422.0,-55.0
5525,1844.0,-74.0
5526,1758.0,-87.0
5527,1251.0,-104.0
5528,993.0,-121.0
5529,1341.0,-120.0
5530,1779.0,-98.0
5531,1727.0,-66.0
5532,1270.0,-44.0
5533,1022.0,-33.0
5534,1358.0,-17.0
5535,1872.0,10.0
5536,1876.0,42.0
5537,1467.0,60.0
5538,1284.0,61.0
5539,2009.0,53.0
5540,1835.0,48.0
5541,1170.0,31.0
5542,877.0,8.0
5543,1236.0,-4.0
5544,1727.0,6.0
5545,1764.0,33.0
5546,1328.0,62.0
5547,1021.0,90.0
5548,1286.0,128.0
5549,1766.0,177.0
5550,1831.0,214.0
5551,1397.0,214.0
5552,1067.0,169.0
5553,1276.0,99.0
5554,1715.0,28.0
5555,1739.0,-33.0
5556,1351.0,-89.0
5557,1069.0,-135.0
5558,1261.0,-156.0
5559,1745.0,-146.0
5560,1881.0,-116.0
5561,1423.0,-83.0
5562,1000.0,-54.0
5563,1159.0,-19.0
5564,1762.0,25.0
5565,1936.0,68.0
5566,1471.0,88.0
5567,1050.0,78.0
5568,1188.0,53.0
5569,1712.0,34.0
5570,1843.0,25.0
5571,1471.0,15.0
5572,1050.0,-1.0
5573,1168.0,-13.0
5574,1647.0,-9.0
5575,1831.0,7.0
5576,1416.0,23.0
5577,1015.0,26.0
5578,1178.0,26.0
5579,1620.0,32.0
5580,1779.0,42.0
5581,1417.0,39.0
5582,1031.0,18.0
5583,1159.0,-5.0
5584,1660.0,-16.0
5585,1834.0,-13.0
5586,1452.0,-13.0
5587,1048.0,-26.0
5588,1128.0,-42.0
5589,1609.0,-47.0
5590,1865.0,-41.0
5591,1530.0,-37.0
5592,1086.0,-41.0
5593,1136.0,-45.0
5594,1623.0,-35.0
5595,1800.0,-14.0
5596,1470.0,2.0
5597,1066.0,4.0
5598,1803.0,18.0
5599,1491.0,27.0
5600,993.0,24.0
5601,954.0,18.0
5602,1416.0,19.0
5603,1699.0,27.0
5604,1409.0,27.0
5605,931.0,10.0
5606,907.0,-12.0
5607,1365.0,-24.0
5608,1650.0,-21.0
5609,1024.0,-121.0
5610,1526.0,-128.0
5611,1937.0,-120.0
5612,1720.0,-101.0
5613,1159.0,-78.0
5614,1027.0,-47.0
5615,1493.0,3.0
5616,1882.0,71.0
5617,1693.0,134.0
5618,1243.0,171.0
5619,1143.0,185.0
5620,1560.0,193.0
5621,1949.0,207.0
5622,1747.0,215.0
5623,1230.0,204.0
5624,1457.0,147.0
5625,1858.0,122.0
5626,1744.0,96.0
5627,1204.0,65.0
5628,1027.0,39.0
5629,1427.0,36.0
5630,1864.0,58.0
5631,1722.0,84.0
5632,1205.0,93.0
5633,975.0,81.0
5634,1292.0,64.0
5635,1707.0,53.0
5636,1641.0,43.0
5637,1170.0,23.0
5638,937.0,-5.0
5639,1241.0,-26.0
5640,1680.0,-31.0
5641,1609.0,-32.0
5642,1099.0,-41.0
5643,808.0,-60.0
5644,1153.0,-75.0
5645,1164.0,-85.0
5646,847.0,-73.0
5647,1051.0,-64.0
5648,1479.0,-50.0
5649,1516.0,-40.0
5650,1077.0,-46.0
5651,725.0,-67.0
5652,916.0,-84.0
5653,1403.0,-81.0
5654,1505.0,-65.0
5655,1085.0,-53.0
5656,652.0,-52.0
5657,812.0,-54.0
5658,1335.0,-48.0
5659,1486.0,-38.0
5660,1125.0,-39.0
5661,749.0,-56.0
5662,847.0,-74.0
5663,1256.0,-82.0
5664,1443.0,-81.0
5665,1093.0,-85.0
5666,729.0,-102.0
5667,893.0,-119.0
5668,1362.0,-120.0
5669,1542.0,-105.0
5670,1203.0,-85.0
5671,813.0,-70.0
5672,948.0,-54.0
5673,1528.0,-29.0
5674,1866.0,-1.0
5675,1592.0,14.0
5676,1158.0,13.0
5677,1246.0,8.0
5678,1636.0,17.0
5679,1744.0,41.0
5680,1338.0,65.0
5681,866.0,77.0
5682,874.0,87.0
5683,1305.0,112.0
5684,1505.0,157.0
5685,1158.0,212.0
5686,761.0,265.0
5687,847.0,314.0
5688,1298.0,360.0
5689,1523.0,387.0
5690,1140.0,375.0
5691,631.0,313.0
5692,695.0,218.0
5693,1220.0,117.0
5694,1503.0,23.0
5695,1155.0,-65.0
5696,683.0,-150.0
5697,709.0,-218.0
5698,1127.0,-251.0
5699,1419.0,-249.0
5700,1192.0,-230.0
5701,733.0,-209.0
5702,692.0,-182.0
5703,1080.0,-142.0
5704,1354.0,-91.0
5705,1100.0,-47.0
5706,673.0,-26.0
5707,631.0,-20.0
5708,1058.0,-17.0
5709,1374.0,-9.0
5710,1138.0,-7.0
5711,681.0,-16.0
5712,616.0,-27.0
5713,1193.0,26.0
5714,788.0,37.0
5715,623.0,38.0
5716,979.0,45.0
5717,1350.0,59.0
5718,1249.0,68.0
5719,788.0,59.0
5720,528.0,37.0
5721,827.0,19.0
5722,1297.0,17.0
5723,1261.0,23.0
5724,781.0,24.0
5725,538.0,22.0
5726,845.0,29.0
5727,1226.0,51.0
5728,1141.0,75.0
5729,695.0,84.0
5730,472.0,75.0
5731,808.0,62.0
5732,1226.0,57.0
5733,1132.0,55.0
5734,634.0,45.0
5735,369.0,26.0
5736,680.0,11.0
5737,1156.0,7.0
5738,1121.0,6.0
5739,334.0,-24.0
5740,592.0,-36.0
5741,1113.0,-30.0
5742,1173.0,-16.0
5743,699.0,-13.0
5744,386.0,-25.0
5745,652.0,-38.0
5746,1145.0,-41.0
5747,1193.0,-38.0
5748,723.0,-40.0
5749,372.0,-48.0
5750,613.0,-51.0
5751,1081.0,-39.0
5752,1148.0,-19.0
5753,742.0,-7.0
5754,417.0,-4.0
5755,652.0,3.0
5756,1090.0,26.0
5757,1153.0,56.0
5758,734.0,75.0
5759,358.0,74.0
5760,535.0,66.0
5761,1073.0,63.0
5762,1191.0,66.0
5763,815.0,61.0
5764,447.0,46.0
5765,600.0,35.0
5766,1093.0,37.0
5767,1251.0,47.0
5768,833.0,49.0
5769,458.0,36.0
5770,1134.0,18.0
5771,1265.0,27.0
5772,858.0,36.0
5773,474.0,38.0
5774,646.0,40.0
5775,1135.0,54.0
5776,1322.0,75.0
5777,946.0,87.0
5778,504.0,84.0
5779,589.0,79.0
5780,1122.0,85.0
5781,1307.0,98.0
5782,985.0,104.0
5783,551.0,94.0
5784,598.0,77.0
5785,1088.0,72.0
5786,1318.0,77.0
5787,971.0,79.0
5788,546.0,70.0
5789,651.0,58.0
5790,1159.0,56.0
5791,1393.0,63.0
5792,1064.0,65.0
5793,607.0,54.0
5794,617.0,38.0
5795,1056.0,33.0
5796,1396.0,36.0
5797,1153.0,35.0
5798,672.0,22.0
5799,658.0,7.0
5800,1063.0,8.0
5801,1370.0,25.0
5802,1114.0,42.0
5803,681.0,46.0
5804,658.0,39.0
5805,1080.0,36.0
5806,1364.0,39.0
5807,1052.0,41.0
5808,529.0,33.0
5809,495.0,20.0
5810,970.0,15.0
5811,1292.0,18.0
5812,1089.0,18.0
5813,604.0,3.0
5814,476.0,-17.0
5815,877.0,-27.0
5816,1291.0,-25.0
5817,656.0,-42.0
5818,524.0,-74.0
5819,931.0,-103.0
5820,1271.0,-118.0
5821,1093.0,-126.0
5822,626.0,-137.0
5823,487.0,-148.0
5824,928.0,-147.0
5825,1322.0,-130.0
5826,1111.0,-109.0
5827,649.0,-97.0
5828,599.0,-90.0
5829,1111.0,-75.0
5830,1665.0,-49.0
5831,1613.0,-27.0
5832,1081.0,-25.0
5833,858.0,-40.0
5834,1231.0,-53.0
5835,1637.0,-55.0
5836,1468.0,-52.0
5837,888.0,-57.0
5838,609.0,-62.0
5839,919.0,-47.0
5840,1357.0,0.0
5841,1270.0,66.0
5842,815.0,134.0
5843,590.0,194.0
5844,894.0,248.0
5845,1343.0,289.0
5846,1263.0,302.0
5847,780.0,268.0
5848,528.0,193.0
5849,860.0,100.0
5850,1312.0,11.0
5851,1261.0,-73.0
5852,823.0,-158.0
5853,640.0,-237.0
5854,923.0,-289.0
5855,1363.0,-303.0
5856,1351.0,-288.0
5857,937.0,-263.0
5858,664.0,-237.0
5859,956.0,-204.0
5860,1420.0,-159.0
5861,1440.0,-114.0
5862,999.0,-83.0
5863,975.0,-58.0
5864,1447.0,-40.0
5865,1527.0,-20.0
5866,1068.0,-9.0
5867,737.0,-10.0
5868,1000.0,-7.0
5869,1453.0,7.0
5870,1480.0,28.0
5871,1056.0,39.0
5872,763.0,36.0
5873,983.0,30.0
5874,1438.0,33.0
5875,1549.0,41.0
5876,1159.0,39.0
5877,787.0,27.0
5878,970.0,14.0
5879,1454.0,13.0
5880,1638.0,16.0
5881,1254.0,10.0
5882,855.0,-8.0
5883,1032.0,-26.0
5884,1533.0,-30.0
5885,1688.0,-22.0
5886,924.0,-23.0
5887,1081.0,-29.0
5888,1585.0,-21.0
5889,1704.0,-4.0
5890,1301.0,9.0
5891,917.0,12.0
5892,1081.0,15.0
5893,1607.0,27.0
5894,1750.0,47.0
5895,1312.0,58.0
5896,880.0,53.0
5897,1034.0,44.0
5898,1515.0,44.0
5899,1721.0,50.0
5900,1317.0,47.0
5901,848.0,29.0
5902,870.0,8.0
5903,1327.0,-1.0
5904,1595.0,0.0
5905,1278.0,-4.0
5906,848.0,-21.0
5907,888.0,-42.0
5908,1322.0,-51.0
5909,1556.0,-51.0
5910,1267.0,-56.0
5911,792.0,-75.0
5912,785.0,-100.0
5913,1295.0,-118.0
5914,1569.0,-127.0
5915,1245.0,-138.0
5916,761.0,-155.0
5917,746.0,-169.0
5918,1239.0,-166.0
5919,1556.0,-146.0
5920,1263.0,-127.0
5921,686.0,-124.0
5922,1138.0,-119.0
5923,1461.0,-102.0
5924,1218.0,-87.0
5925,709.0,-84.0
5926,652.0,-90.0
5927,1119.0,-89.0
5928,1496.0,-80.0
5929,1213.0,-72.0
5930,692.0,-76.0
5931,544.0,-87.0
5932,974.0,-89.0
5933,1382.0,-81.0
5934,1219.0,-74.0
5935,751.0,-81.0
5936,618.0,-94.0
5937,976.0,-94.0
5938,1336.0,-78.0
5939,1216.0,-59.0
5940,749.0,-54.0
5941,632.0,-62.0
5942,1016.0,-68.0
5943,1371.0,-62.0
5944,1215.0,-53.0
5945,740.0,-50.0
5946,555.0,-50.0
5947,946.0,-41.0
5948,1306.0,-21.0
5949,1151.0,-1.0
5950,694.0,6.0
5951,565.0,6.0
5952,949.0,12.0
5953,1357.0,33.0
5954,1204.0,56.0
5955,741.0,66.0
5956,911.0,51.0
5957,1355.0,45.0
5958,1215.0,39.0
5959,720.0,25.0
5960,517.0,7.0
5961,869.0,3.0
5962,1343.0,16.0
5963,1332.0,37.0
5964,893.0,48.0
5965,623.0,50.0
5966,893.0,57.0
5967,1321.0,74.0
5968,1263.0,92.0
5969,779.0,96.0
5970,552.0,86.0
5971,982.0,78.0
5972,1495.0,82.0
5973,1517.0,95.0
5974,1013.0,105.0
5975,655.0,108.0
5976,866.0,116.0
5977,1298.0,132.0
5978,1328.0,144.0
5979,528.0,119.0
5980,817.0,105.0
5981,1346.0,115.0
5982,1416.0,144.0
5983,987.0,171.0
5984,666.0,184.0
5985,893.0,186.0
5986,1363.0,183.0
5987,1429.0,170.0
5988,975.0,138.0
5989,586.0,91.0
5990,832.0,52.0
5991,1364.0,34.0
5992,1462.0,33.0
5993,1004.0,34.0
5994,588.0,30.0
5995,763.0,32.0
5996,1283.0,52.0
5997,1524.0,82.0
5998,1185.0,105.0
5999,888.0,112.0
6000,1110.0,111.0
6001,1559.0,114.0
6002,1642.0,118.0
6003,1137.0,107.0
6004,708.0,78.0
6005,865.0,44.0
6006,1323.0,24.0
6007,1367.0,22.0
6008,943.0,32.0
6009,569.0,51.0
6010,685.0,88.0
6011,1172.0,146.0
6012,1319.0,208.0
6013,919.0,244.0
6014,487.0,204.0
6015,940.0,156.0
6016,1162.0,101.0
6017,818.0,35.0
6018,402.0,-42.0
6019,443.0,-117.0
6020,916.0,-171.0
6021,1156.0,-203.0
6022,810.0,-226.0
6023,304.0,-247.0
6024,363.0,-258.0
6025,919.0,-250.0
6026,1245.0,-227.0
6027,908.0,-206.0
6028,443.0,-198.0
6029,471.0,-194.0
6030,974.0,-181.0
6031,1239.0,-158.0
6032,940.0,-140.0
6033,494.0,-138.0
6034,496.0,-142.0
6035,973.0,-132.0
6036,1257.0,-102.0
6037,1019.0,-66.0
6038,593.0,-36.0
6039,550.0,-11.0
6040,1001.0,18.0
6041,1357.0,52.0
6042,1144.0,75.0
6043,660.0,79.0
6044,575.0,72.0
6045,1018.0,73.0
6046,1371.0,84.0
6047,1201.0,95.0
6048,767.0,93.0
6049,729.0,83.0
6050,1157.0,82.0
6051,1501.0,96.0
6052,1283.0,112.0
6053,791.0,118.0
6054,706.0,117.0
6055,1120.0,120.0
6056,1498.0,132.0
6057,1338.0,141.0
6058,903.0,141.0
6059,767.0,136.0
6060,1175.0,141.0
6061,1567.0,159.0
6062,1382.0,176.0
6063,871.0,177.0
6064,701.0,162.0
6065,1405.0,137.0
6066,953.0,124.0
6067,761.0,108.0
6068,1090.0,99.0
6069,1475.0,102.0
6070,1375.0,105.0
6071,919.0,92.0
6072,747.0,66.0
6073,1089.0,42.0
6074,1504.0,31.0
6075,1409.0,26.0
6076,973.0,14.0
6077,762.0,-1.0
6078,1481.0,-8.0
6079,1026.0,-16.0
6080,815.0,-33.0
6081,1145.0,-42.0
6082,1570.0,-36.0
6083,1515.0,-23.0
6084,1051.0,-19.0
6085,770.0,-25.0
6086,1077.0,-31.0
6087,1523.0,-26.0
6088,1491.0,-17.0
6089,1019.0,-15.0
6090,726.0,-19.0
6091,1093.0,-17.0
6092,1610.0,-4.0
6093,1660.0,9.0
6094,1189.0,9.0
6095,857.0,-7.0
6096,1113.0,-27.0
6097,1560.0,-38.0
6098,1657.0,-47.0
6099,1229.0,-65.0
6100,939.0,-92.0
6101,1215.0,-111.0
6102,1718.0,-107.0
6103,1795.0,-87.0
6104,1354.0,-65.0
6105,987.0,-51.0
6106,1212.0,-37.0
6107,1754.0,-17.0
6108,1873.0,2.0
6109,1431.0,9.0
6110,1013.0,2.0
6111,1211.0,-2.0
6112,1742.0,8.0
6113,1867.0,28.0
6114,1440.0,39.0
6115,1052.0,33.0
6116,1235.0,22.0
6117,1705.0,21.0
6118,1843.0,29.0
6119,1461.0,32.0
6120,1111.0,22.0
6121,1873.0,-74.0
6122,1508.0,-70.0
6123,1096.0,-80.0
6124,1174.0,-94.0
6125,1615.0,-99.0
6126,1852.0,-94.0
6127,1484.0,-91.0
6128,999.0,-99.0
6129,1068.0,-110.0
6130,1526.0,-112.0
6131,1797.0,-106.0
6132,1535.0,-105.0
6133,1064.0,-116.0
6134,1060.0,-129.0
6135,1540.0,-125.0
6136,1055.0,-142.0
6137,1001.0,-166.0
6138,1397.0,-181.0
6139,1664.0,-182.0
6140,1425.0,-179.0
6141,1002.0,-181.0
6142,1031.0,-182.0
6143,1427.0,-142.0
6144,895.0,-139.0
6145,1663.0,-145.0
6146,1567.0,-141.0
6147,1211.0,-148.0
6148,1232.0,-163.0
6149,1723.0,-170.0
6150,2083.0,-162.0
6151,1775.0,-149.0
6152,1153.0,-143.0
6153,972.0,-139.0
6154,1351.0,-121.0
6155,1718.0,-82.0
6156,1563.0,-32.0
6157,1100.0,20.0
6158,898.0,80.0
6159,1244.0,160.0
6160,1649.0,256.0
6161,1506.0,339.0
6162,977.0,380.0
6163,751.0,371.0
6164,1131.0,326.0
6165,1595.0,262.0
6166,1550.0,186.0
6167,1062.0,99.0
6168,842.0,15.0
6169,1185.0,-50.0
6170,1582.0,-90.0
6171,1570.0,-117.0
6172,1099.0,-144.0
6173,863.0,-166.0
6174,1153.0,-168.0
6175,1578.0,-138.0
6176,904.0,72.0
6177,1112.0,56.0
6178,1585.0,53.0
6179,1177.0,66.0
6180,832.0,66.0
6181,1110.0,69.0
6182,1581.0,83.0
6183,1669.0,103.0
6184,1251.0,113.0
6185,855.0,110.0
6186,1020.0,105.0
6187,1517.0,110.0
6188,1665.0,118.0
6189,1281.0,114.0
6190,886.0,96.0
6191,1042.0,76.0
6192,1525.0,71.0
6193,1682.0,78.0
6194,1289.0,83.0
6195,922.0,77.0
6196,1119.0,69.0
6197,1563.0,70.0
6198,1710.0,77.0
6199,1328.0,79.0
6200,870.0,71.0
6201,905.0,63.0
6202,1346.0,69.0
6203,1535.0,83.0
6204,1191.0,91.0
6205,802.0,87.0
6206,880.0,82.0
6207,1319.0,89.0
6208,1496.0,107.0
6209,1175.0,119.0
6210,1290.0,-68.0
6211,1582.0,-43.0
6212,1320.0,-17.0
6213,914.0,-2.0
6214,905.0,6.0
6215,1292.0,20.0
6216,1551.0,40.0
6217,1346.0,55.0
6218,908.0,57.0
6219,863.0,52.0
6220,1303.0,54.0
6221,1564.0,65.0
6222,1304.0,76.0
6223,841.0,77.0
6224,783.0,71.0
6225,1191.0,73.0
6226,1479.0,82.0
6227,1216.0,88.0
6228,716.0,80.0
6229,661.0,65.0
6230,1123.0,57.0
6231,1484.0,60.0
6232,1253.0,62.0
6233,733.0,51.0
6234,653.0,30.0
6235,1138.0,12.0
6236,1576.0,1.0
6237,715.0,-64.0
6238,1111.0,-80.0
6239,1523.0,-78.0
6240,1401.0,-69.0
6241,942.0,-66.0
6242,731.0,-66.0
6243,1078.0,-53.0
6244,1487.0,-21.0
6245,1399.0,16.0
6246,905.0,43.0
6247,658.0,58.0
6248,1034.0,73.0
6249,984.0,102.0
6250,726.0,83.0
6251,1003.0,67.0
6252,1404.0,62.0
6253,1439.0,60.0
6254,1018.0,45.0
6255,743.0,19.0
6256,1031.0,0.0
6257,1473.0,-2.0
6258,1448.0,9.0
6259,1017.0,19.0
6260,764.0,22.0
6261,1076.0,24.0
6262,1557.0,33.0
6263,1556.0,42.0
6264,1111.0,40.0
6265,863.0,29.0
6266,1175.0,22.0
6267,1601.0,29.0
6268,1583.0,42.0
6269,1116.0,45.0
6270,756.0,36.0
6271,983.0,29.0
6272,1436.0,37.0
6273,1433.0,55.0
6274,973.0,71.0
6275,674.0,80.0
6276,952.0,91.0
6277,1427.0,109.0
6278,1431.0,125.0
6279,1000.0,123.0
6280,679.0,99.0
6281,928.0,65.0
6282,1415.0,35.0
6283,1525.0,4.0
6284,1113.0,-35.0
6285,707.0,-82.0
6286,870.0,-119.0
6287,1376.0,-133.0
6288,1555.0,-128.0
6289,1177.0,-122.0
6290,776.0,-120.0
6291,926.0,-112.0
6292,1501.0,-88.0
6293,1723.0,-53.0
6294,1422.0,-24.0
6295,1270.0,-6.0
6296,1685.0,0.0
6297,1763.0,9.0
6298,1285.0,9.0
6299,788.0,-3.0
6300,811.0,-13.0
6301,1239.0,-5.0
6302,1481.0,21.0
6303,1195.0,56.0
6304,777.0,90.0
6305,854.0,127.0
6306,1293.0,172.0
6307,1475.0,213.0
6308,1122.0,224.0
6309,689.0,189.0
6310,723.0,118.0
6311,1119.0,32.0
6312,1393.0,-52.0
6313,1135.0,-130.0
6314,727.0,-199.0
6315,756.0,-244.0
6316,1183.0,-257.0
6317,1411.0,-242.0
6318,1044.0,-220.0
6319,570.0,-205.0
6320,588.0,-193.0
6321,1060.0,-171.0
6322,1349.0,-140.0
6323,1049.0,-113.0
6324,557.0,-100.0
6325,539.0,-96.0
6326,935.0,-90.0
6327,1213.0,-82.0
6328,1032.0,-84.0
6329,942.0,-138.0
6330,1232.0,-135.0
6331,994.0,-128.0
6332,529.0,-130.0
6333,549.0,-140.0
6334,1047.0,-144.0
6335,1380.0,-141.0
6336,1136.0,-137.0
6337,639.0,-139.0
6338,565.0,-138.0
6339,983.0,-122.0
6340,1346.0,-92.0
6341,1088.0,-65.0
6342,552.0,-53.0
6343,434.0,-51.0
6344,911.0,-40.0
6345,1384.0,-13.0
6346,1239.0,19.0
6347,722.0,44.0
6348,559.0,58.0
6349,933.0,71.0
6350,1299.0,84.0
6351,1110.0,85.0
6352,609.0,65.0
6353,426.0,33.0
6354,768.0,11.0
6355,1165.0,9.0
6356,1047.0,19.0
6357,566.0,27.0
6358,371.0,33.0
6359,699.0,46.0
6360,1056.0,68.0
6361,951.0,85.0
6362,424.0,80.0
6363,229.0,56.0
6364,593.0,31.0
6365,999.0,14.0
6366,907.0,1.0
6367,418.0,-19.0
6368,160.0,-48.0
6369,527.0,-69.0
6370,1013.0,-75.0
6371,987.0,-75.0
6372,532.0,-80.0
6373,290.0,-90.0
6374,616.0,-93.0
6375,1053.0,-81.0
6376,1015.0,-65.0
6377,545.0,-59.0
6378,286.0,-64.0
6379,567.0,-65.0
6380,1020.0,-51.0
6381,1079.0,-26.0
6382,688.0,-3.0
6383,409.0,16.0
6384,639.0,42.0
6385,1109.0,79.0
6386,1200.0,115.0
6387,790.0,131.0
6388,471.0,126.0
6389,666.0,115.0
6390,1075.0,112.0
6391,1190.0,116.0
6392,786.0,118.0
6393,459.0,114.0
6394,720.0,114.0
6395,1232.0,128.0
6396,1314.0,152.0
6397,839.0,169.0
6398,444.0,175.0
6399,741.0,176.0
6400,1297.0,182.0
6401,1392.0,188.0
6402,946.0,181.0
6403,599.0,160.0
6404,766.0,139.0
6405,1226.0,134.0
6406,1351.0,141.0
6407,1030.0,144.0
6408,672.0,136.0
6409,811.0,128.0
6410,1276.0,132.0
6411,1440.0,147.0
6412,1053.0,159.0
6413,648.0,158.0
6414,764.0,154.0
6415,1261.0,154.0
6416,1488.0,155.0
6417,1123.0,144.0
6418,730.0,121.0
6419,882.0,101.0
6420,1355.0,96.0
6421,1546.0,103.0
6422,1208.0,106.0
6423,826.0,92.0
6424,928.0,71.0
6425,1396.0,57.0
6426,1604.0,53.0
6427,1289.0,51.0
6428,860.0,44.0
6429,932.0,39.0
6430,1378.0,47.0
6431,1631.0,63.0
6432,1363.0,73.0
6433,911.0,70.0
6434,944.0,62.0
6435,1372.0,64.0
6436,1627.0,74.0
6437,1387.0,78.0
6438,938.0,67.0
6439,922.0,46.0
6440,1437.0,31.0
6441,1782.0,24.0
6442,1512.0,15.0
6443,1051.0,-1.0
6444,1030.0,-21.0
6445,1490.0,-30.0
6446,1807.0,-29.0
6447,1573.0,-31.0
6448,1115.0,-44.0
6449,1069.0,-62.0
6450,1510.0,-67.0
6451,1852.0,-55.0
6452,1632.0,-38.0
6453,1166.0,-29.0
6454,1056.0,-27.0
6455,1477.0,-20.0
6456,1856.0,-6.0
6457,1635.0,3.0
6458,1111.0,-2.0
6459,959.0,-16.0
6460,1387.0,-25.0
6461,1748.0,-24.0
6462,1538.0,-25.0
6463,1088.0,-39.0
6464,975.0,-63.0
6465,1404.0,-80.0
6466,1722.0,-86.0
6467,1536.0,-91.0
6468,1112.0,-108.0
6469,956.0,-134.0
6470,1318.0,-158.0
6471,1721.0,-172.0
6472,1620.0,-185.0
6473,1144.0,-206.0
6474,993.0,-229.0
6475,1368.0,-239.0
6476,1783.0,-231.0
6477,1717.0,-218.0
6478,1253.0,-213.0
6479,1101.0,-217.0
6480,1523.0,-216.0
6481,1516.0,-179.0
6482,1384.0,-178.0
6483,1826.0,-172.0
6484,2228.0,-155.0
6485,2030.0,-135.0
6486,1379.0,-123.0
6487,1132.0,-116.0
6488,1452.0,-99.0
6489,1909.0,-60.0
6490,1923.0,-12.0
6491,1459.0,32.0
6492,1182.0,69.0
6493,1534.0,108.0
6494,2003.0,150.0
6495,1955.0,177.0
6496,1437.0,167.0
6497,1144.0,117.0
6498,1503.0,47.0
6499,2081.0,-22.0
6500,2079.0,-87.0
6501,1495.0,-149.0
6502,1155.0,-200.0
6503,1479.0,-225.0
6504,2039.0,-217.0
6505,2089.0,-193.0
6506,1550.0,-174.0
6507,1247.0,-163.0
6508,1545.0,-145.0
6509,2065.0,-111.0
6510,2071.0,-68.0
6511,1538.0,-40.0
6512,1204.0,-36.0
6513,1435.0,-44.0
6514,1952.0,-51.0
6515,1249.0,-89.0
6516,1504.0,-95.0
6517,2032.0,-81.0
6518,2111.0,-60.0
6519,1570.0,-53.0
6520,1191.0,-68.0
6521,1509.0,-89.0
6522,2110.0,-101.0
6523,2183.0,-100.0
6524,1668.0,-101.0
6525,1270.0,-105.0
6526,1569.0,-104.0
6527,1313.0,-66.0
6528,1545.0,-73.0
6529,2120.0,-64.0
6530,2216.0,-42.0
6531,1750.0,-25.0
6532,1371.0,-22.0
6533,1621.0,-20.0
6534,2212.0,-8.0
6535,2223.0,8.0
6536,1935.0,15.0
6537,1480.0,9.0
6538,1626.0,1.0
6539,2191.0,6.0
6540,2227.0,17.0
6541,1915.0,18.0
6542,1445.0,5.0
6543,1594.0,-6.0
6544,2168.0,-1.0
6545,2223.0,17.0
6546,1989.0,34.0
6547,1496.0,41.0
6548,1556.0,45.0
6549,2084.0,56.0
6550,2219.0,69.0
6551,1826.0,70.0
6552,1427.0,53.0
6553,1558.0,30.0
6554,2111.0,17.0
6555,2223.0,15.0
6556,1954.0,12.0
6557,1450.0,0.0
6558,1504.0,-13.0
6559,2049.0,-17.0
6560,2223.0,-15.0
6561,2006.0,-19.0
6562,1468.0,-36.0
6563,1525.0,-53.0
6564,2125.0,-55.0
6565,2230.0,-41.0
6566,2088.0,-28.0
6567,1607.0,-26.0
6568,1576.0,-30.0
6569,2083.0,-28.0
6570,2225.0,-16.0
6571,2027.0,-7.0
6572,1469.0,-7.0
6573,1532.0,-9.0
6574,2085.0,-1.0
6575,2225.0,19.0
6576,2127.0,36.0
6577,1600.0,41.0
6578,1499.0,39.0
6579,1981.0,43.0
6580,2232.0,53.0
6581,2128.0,55.0
6582,1609.0,40.0
6583,1506.0,15.0
6584,1967.0,0.0
6585,2220.0,0.0
6586,2085.0,4.0
6587,1515.0,3.0
6588,1429.0,-1.0
6589,1990.0,0.0
6590,2230.0,9.0
6591,2140.0,19.0
6592,1608.0,19.0
6593,1453.0,14.0
6594,1936.0,16.0
6595,2227.0,27.0
6596,2131.0,32.0
6597,1575.0,20.0
6598,1361.0,-3.0
6599,1840.0,-20.0
6600,2228.0,-18.0
6601,2118.0,-6.0
6602,1556.0,1.0
6603,1382.0,4.0
6604,1788.0,12.0
6605,2222.0,28.0
6606,2085.0,40.0
6607,1533.0,36.0
6608,1344.0,19.0
6609,1708.0,7.0
6610,2204.0,8.0
6611,2122.0,11.0
6612,1529.0,4.0
6613,1237.0,-10.0
6614,1639.0,-19.0
6615,2172.0,-12.0
6616,2119.0,-1.0
6617,1557.0,0.0
6618,1231.0,-9.0
6619,1571.0,-13.0
6620,2083.0,-3.0
6621,2103.0,11.0
6622,1589.0,12.0
6623,1260.0,0.0
6624,1595.0,-10.0
6625,2122.0,-8.0
6626,2123.0,1.0
6627,1562.0,3.0
6628,1218.0,-5.0
6629,1517.0,-10.0
6630,2087.0,-3.0
6631,2186.0,9.0
6632,1619.0,14.0
6633,1219.0,9.0
6634,1488.0,9.0
6635,2032.0,25.0
6636,2138.0,48.0
6637,1631.0,58.0
6638,1234.0,52.0
6639,1476.0,41.0
6640,2028.0,43.0
6641,2171.0,54.0
6642,1606.0,61.0
6643,1110.0,55.0
6644,1259.0,49.0
6645,1883.0,53.0
6646,2176.0,62.0
6647,1664.0,62.0
6648,1133.0,51.0
6649,1284.0,43.0
6650,1842.0,51.0
6651,2039.0,70.0
6652,1620.0,77.0
6653,1176.0,61.0
6654,1280.0,34.0
6655,1752.0,16.0
6656,1946.0,12.0
6657,1576.0,11.0
6658,1101.0,3.0
6659,1169.0,-1.0
6660,1686.0,5.0
6661,1935.0,21.0
6662,1604.0,30.0
6663,1087.0,24.0
6664,1100.0,15.0
6665,1606.0,18.0
6666,1841.0,31.0
6667,1492.0,37.0
6668,1041.0,26.0
6669,1034.0,6.0
6670,1513.0,-6.0
6671,1841.0,-5.0
6672,1639.0,-1.0
6673,1238.0,-3.0
6674,1272.0,-7.0
6675,1786.0,-4.0
6676,2175.0,5.0
6677,1826.0,8.0
6678,1166.0,-3.0
6679,1026.0,-19.0
6680,1447.0,-26.0
6681,1788.0,-15.0
6682,1501.0,2.0
6683,983.0,20.0
6684,839.0,47.0
6685,1231.0,96.0
6686,1625.0,162.0
6687,1490.0,222.0
6688,997.0,253.0
6689,785.0,247.0
6690,1141.0,217.0
6691,1461.0,173.0
6692,1241.0,112.0
6693,728.0,34.0
6694,618.0,-47.0
6695,1028.0,-111.0
6696,1420.0,-146.0
6697,1271.0,-161.0
6698,770.0,-168.0
6699,574.0,-167.0
6700,860.0,-150.0
6701,1257.0,-118.0
6702,1237.0,-88.0
6703,838.0,-78.0
6704,902.0,-95.0
6705,1254.0,-94.0
6706,1207.0,-87.0
6707,759.0,-85.0
6708,499.0,-90.0
6709,826.0,-92.0
6710,1311.0,-85.0
6711,1269.0,-71.0
6712,827.0,-58.0
6713,567.0,-43.0
6714,827.0,-19.0
6715,1251.0,14.0
6716,1258.0,43.0
6717,820.0,51.0
6718,575.0,39.0
6719,873.0,25.0
6720,1296.0,26.0
6721,1256.0,41.0
6722,823.0,58.0
6723,589.0,70.0
6724,863.0,82.0
6725,1348.0,98.0
6726,1388.0,112.0
6727,944.0,115.0
6728,618.0,111.0
6729,857.0,113.0
6730,1351.0,128.0
6731,1465.0,147.0
6732,1034.0,155.0
6733,683.0,148.0
6734,849.0,141.0
6735,1297.0,147.0
6736,1404.0,164.0
6737,1012.0,178.0
6738,660.0,183.0
6739,865.0,188.0
6740,1274.0,200.0
6741,1344.0,215.0
6742,972.0,221.0
6743,611.0,214.0
6744,784.0,204.0
6745,1225.0,201.0
6746,1292.0,200.0
6747,845.0,189.0
6748,478.0,166.0
6749,623.0,141.0
6750,1106.0,128.0
6751,1248.0,125.0
6752,795.0,118.0
6753,386.0,100.0
6754,485.0,80.0
6755,953.0,69.0
6756,1167.0,64.0
6757,814.0,52.0
6758,370.0,27.0
6759,480.0,1.0
6760,951.0,-15.0
6761,1145.0,-23.0
6762,802.0,-34.0
6763,956.0,-85.0
6764,1150.0,-83.0
6765,805.0,-81.0
6766,369.0,-86.0
6767,448.0,-88.0
6768,973.0,-77.0
6769,1188.0,-54.0
6770,836.0,-36.0
6771,311.0,-31.0
6772,288.0,-32.0
6773,762.0,-24.0
6774,1016.0,-7.0
6775,724.0,3.0
6776,714.0,-8.0
6777,1016.0,1.0
6778,808.0,7.0
6779,395.0,-1.0
6780,414.0,-20.0
6781,862.0,-39.0
6782,1142.0,-53.0
6783,846.0,-69.0
6784,309.0,-92.0
6785,290.0,-113.0
6786,770.0,-117.0
6787,1087.0,-101.0
6788,867.0,-80.0
6789,359.0,-63.0
6790,273.0,-44.0
6791,664.0,-13.0
6792,1031.0,29.0
6793,917.0,66.0
6794,432.0,80.0
6795,273.0,72.0
6796,664.0,58.0
6797,979.0,47.0
6798,813.0,33.0
6799,362.0,12.0
6800,275.0,-12.0
6801,739.0,-27.0
6802,1128.0,-28.0
6803,914.0,-24.0
6804,400.0,-25.0
6805,254.0,-28.0
6806,662.0,-23.0
6807,1072.0,-7.0
6808,933.0,5.0
6809,469.0,2.0
6810,329.0,-10.0
6811,722.0,-16.0
6812,1175.0,-4.0
6813,1086.0,15.0
6814,657.0,25.0
6815,487.0,24.0
6816,821.0,22.0
6817,1223.0,25.0
6818,1117.0,27.0
6819,411.0,13.0
6820,776.0,16.0
6821,1283.0,35.0
6822,1257.0,59.0
6823,766.0,75.0
6824,473.0,83.0
6825,745.0,95.0
6826,1193.0,115.0
6827,1202.0,133.0
6828,767.0,132.0
6829,533.0,113.0
6830,839.0,90.0
6831,1245.0,78.0
6832,1204.0,74.0
6833,688.0,67.0
6834,367.0,53.0
6835,721.0,39.0
6836,1223.0,33.0
6837,1222.0,29.0
6838,744.0,19.0
6839,406.0,4.0
6840,612.0,-1.0
6841,1095.0,8.0
6842,1159.0,19.0
6843,727.0,12.0
6844,404.0,-15.0
6845,609.0,-48.0
6846,1059.0,-70.0
6847,1167.0,-78.0
6848,740.0,-84.0
6849,432.0,-94.0
6850,639.0,-104.0
6851,936.0,-95.0
6852,472.0,-91.0
6853,1294.0,-6.0
6854,955.0,50.0
6855,556.0,101.0
6856,623.0,143.0
6857,1054.0,174.0
6858,1254.0,183.0
6859,936.0,152.0
6860,516.0,81.0
6861,600.0,-9.0
6862,1066.0,-92.0
6863,1267.0,-154.0
6864,969.0,-200.0
6865,548.0,-237.0
6866,602.0,-259.0
6867,1080.0,-258.0
6868,1292.0,-238.0
6869,988.0,-212.0
6870,591.0,-190.0
6871,643.0,-167.0
6872,1117.0,-136.0
6873,1363.0,-101.0
6874,1034.0,-78.0
6875,1085.0,-99.0
6876,1368.0,-100.0
6877,1108.0,-101.0
6878,714.0,-104.0
6879,720.0,-105.0
6880,1117.0,-93.0
6881,1383.0,-70.0
6882,1153.0,-53.0
6883,728.0,-51.0
6884,700.0,-58.0
6885,1108.0,-61.0
6886,1427.0,-54.0
6887,1230.0,-46.0
6888,825.0,-44.0
6889,738.0,-43.0
6890,1160.0,-33.0
6891,1515.0,-15.0
6892,1295.0,-3.0
6893,824.0,-4.0
6894,712.0,-14.0
6895,1091.0,-18.0
6896,1416.0,-11.0
6897,1281.0,-1.0
6898,888.0,1.0
6899,787.0,-1.0
6900,1185.0,2.0
6901,1527.0,15.0
6902,1307.0,28.0
6903,767.0,28.0
6904,648.0,18.0
6905,1093.0,8.0
6906,1496.0,3.0
6907,1357.0,0.0
6908,829.0,-11.0
6909,632.0,-23.0
6910,1004.0,-23.0
6911,1396.0,-9.0
6912,1280.0,4.0
6913,802.0,1.0
6914,597.0,-16.0
6915,952.0,-32.0
6916,1361.0,-37.0
6917,1247.0,-34.0
6918,776.0,-38.0
6919,582.0,-48.0
6920,925.0,-56.0
6921,1332.0,-59.0
6922,1285.0,-63.0
6923,820.0,-79.0
6924,608.0,-99.0
6925,931.0,-109.0
6926,1376.0,-101.0
6927,1330.0,-87.0
6928,871.0,-83.0
6929,589.0,-91.0
6930,898.0,-98.0
6931,1414.0,-92.0
6932,1423.0,-79.0
6933,944.0,-70.0
6934,638.0,-66.0
6935,941.0,-58.0
6936,1372.0,-39.0
6937,1359.0,-17.0
6938,946.0,-7.0
6939,653.0,-10.0
6940,908.0,-12.0
6941,1374.0,-2.0
6942,1412.0,13.0
6943,967.0,23.0
