n,t_s,ir_raw,ir_filt,peak
1,0.010,76346.0,20.0,0
2,0.020,77669.0,10.0,0
3,0.030,77720.0,21.0,0
4,0.040,76774.0,48.0,0
5,0.050,76702.0,72.0,0
6,0.060,76989.0,85.0,0
7,0.070,76705.0,92.0,0
8,0.080,77082.0,95.0,0
9,0.090,77081.0,97.0,0
10,0.100,77104.0,102.0,0
11,0.110,77206.0,109.0,0
12,0.120,77059.0,117.0,0
13,0.130,77160.0,124.0,0
14,0.140,77214.0,131.0,0
15,0.150,77137.0,138.0,0
16,0.160,77149.0,126.0,0
17,0.170,76792.0,109.0,0
18,0.180,76735.0,89.0,0
19,0.190,76583.0,61.0,0
20,0.200,76536.0,27.0,0
21,0.210,76019.0,-14.0,0
22,0.220,77385.0,-59.0,0
23,0.230,77345.0,-87.0,0
24,0.240,75804.0,-104.0,0
25,0.250,76354.0,-130.0,0
26,0.260,76438.0,-164.0,0
27,0.270,76469.0,-196.0,0
28,0.280,76498.0,-223.0,0
29,0.290,76399.0,-244.0,0
30,0.300,76543.0,-260.0,0
31,0.310,76706.0,-267.0,0
32,0.320,76748.0,-264.0,0
33,0.330,76703.0,-251.0,0
34,0.340,76747.0,-230.0,0
35,0.350,76881.0,-203.0,0
36,0.360,76814.0,-170.0,0
37,0.370,76809.0,-135.0,0
38,0.380,76872.0,-99.0,0
39,0.390,76921.0,-62.0,0
40,0.400,76942.0,-25.0,0
41,0.410,76761.0,9.0,0
42,0.420,76478.0,36.0,0
43,0.430,77802.0,61.0,0
44,0.440,77826.0,100.0,0
45,0.450,76194.0,146.0,0
46,0.460,76420.0,171.0,0
47,0.470,76557.0,172.0,0
48,0.480,76653.0,159.0,0
49,0.490,76300.0,138.0,0
50,0.500,76219.0,106.0,0
51,0.510,76223.0,64.0,1
52,0.520,76178.0,15.0,0
53,0.530,75826.0,-37.0,0
54,0.540,75771.0,-96.0,0
55,0.550,75765.0,-161.0,0
56,0.560,75622.0,-226.0,0
57,0.570,75582.0,-290.0,0
58,0.580,75338.0,-352.0,0
59,0.590,75372.0,-554.0,0
60,0.600,75167.0,-584.0,0
61,0.610,76691.0,-593.0,0
62,0.620,76738.0,-563.0,0
63,0.630,76155.0,-497.0,0
64,0.640,76240.0,-414.0,0
65,0.650,76275.0,-324.0,0
66,0.660,76557.0,-230.0,0
67,0.670,76747.0,74.0,0
68,0.680,76746.0,170.0,0
69,0.690,76755.0,453.0,0
70,0.700,76582.0,489.0,0
71,0.710,76720.0,514.0,0
72,0.720,76728.0,532.0,0
73,0.730,76537.0,541.0,0
74,0.740,76794.0,541.0,0
75,0.750,76745.0,535.0,0
76,0.760,76213.0,522.0,0
77,0.770,77626.0,504.0,0
78,0.780,77625.0,500.0,1
79,0.790,76707.0,507.0,0
80,0.800,76687.0,506.0,0
81,0.810,76485.0,490.0,0
82,0.820,76606.0,459.0,0
83,0.830,76628.0,419.0,0
84,0.840,76377.0,371.0,0
85,0.850,76430.0,316.0,0
86,0.860,76465.0,257.0,0
87,0.870,76269.0,196.0,0
88,0.880,76241.0,133.0,0
89,0.890,76177.0,68.0,0
90,0.900,76133.0,4.0,0
91,0.910,76386.0,-55.0,0
92,0.920,76363.0,-107.0,0
93,0.930,76317.0,-148.0,0
94,0.940,75777.0,-241.0,0
95,0.950,77281.0,-250.0,0
96,0.960,76686.0,-239.0,0
97,0.970,76304.0,-216.0,0
98,0.980,76441.0,-193.0,0
99,0.990,76355.0,-172.0,0
100,1.000,76027.0,-156.0,0
101,1.010,76446.0,-147.0,0
102,1.020,76259.0,-140.0,0
103,1.030,76156.0,-135.0,0
104,1.040,76393.0,-131.0,0
105,1.050,76416.0,-127.0,0
106,1.060,76005.0,-85.0,0
107,1.070,76385.0,-80.0,0
108,1.080,76449.0,-76.0,0
109,1.090,75935.0,-44.0,0
110,1.100,77385.0,-35.0,0
111,1.110,76475.0,-14.0,0
112,1.120,76221.0,9.0,0
113,1.130,76457.0,26.0,0
114,1.140,76560.0,38.0,0
115,1.150,76390.0,49.0,0
116,1.160,76290.0,56.0,0
117,1.170,76626.0,59.0,0
118,1.180,76398.0,62.0,0
119,1.190,76570.0,65.0,0
120,1.200,76582.0,68.0,0
121,1.210,76529.0,73.0,0
122,1.220,76419.0,76.0,0
123,1.230,76491.0,77.0,0
124,1.240,76599.0,76.0,0
125,1.250,76343.0,74.0,0
126,1.260,76647.0,71.0,0
127,1.270,76195.0,57.0,0
128,1.280,77635.0,50.0,0
129,1.290,76725.0,59.0,0
130,1.300,76510.0,75.0,0
131,1.310,76680.0,86.0,0
132,1.320,76677.0,94.0,0
133,1.330,76525.0,98.0,0
134,1.340,76673.0,97.0,0
135,1.350,76012.0,90.0,0
136,1.360,76652.0,73.0,0
137,1.370,76748.0,56.0,0
138,1.380,76917.0,47.0,0
139,1.390,75929.0,39.0,0
140,1.400,76637.0,24.0,0
141,1.410,75809.0,-10.0,0
142,1.420,76712.0,-29.0,0
143,1.430,76756.0,-44.0,0
144,1.440,77377.0,-51.0,0
145,1.450,76558.0,-40.0,0
146,1.460,76378.0,-28.0,0
147,1.470,76189.0,-39.0,0
148,1.480,76280.0,-55.0,0
149,1.490,75435.0,-81.0,0
150,1.500,76196.0,-117.0,0
151,1.510,76318.0,-154.0,0
152,1.520,76340.0,-180.0,0
153,1.530,76181.0,-198.0,0
154,1.540,76207.0,-209.0,0
155,1.550,76249.0,-215.0,0
156,1.560,76316.0,-215.0,0
157,1.570,76330.0,-209.0,0
158,1.580,76200.0,-199.0,0
159,1.590,76368.0,-185.0,0
160,1.600,76365.0,-167.0,0
161,1.610,76203.0,-147.0,0
162,1.620,76314.0,-79.0,0
163,1.630,76359.0,-44.0,0
164,1.640,76344.0,-14.0,0
165,1.650,76404.0,57.0,0
166,1.660,76396.0,66.0,0
167,1.670,76269.0,73.0,0
168,1.680,75985.0,79.0,0
169,1.690,76350.0,73.0,0
170,1.700,76398.0,65.0,0
171,1.710,76506.0,61.0,0
172,1.720,76374.0,60.0,0
173,1.730,76392.0,60.0,0
174,1.740,76536.0,60.0,0
175,1.750,75901.0,60.0,0
176,1.760,77398.0,61.0,0
177,1.770,76471.0,73.0,0
178,1.780,76453.0,101.0,0
179,1.790,76411.0,102.0,0
180,1.800,76520.0,101.0,0
181,1.810,76535.0,100.0,0
182,1.820,76491.0,99.0,0
183,1.830,76532.0,97.0,1
184,1.840,76433.0,95.0,0
185,1.850,76573.0,92.0,0
186,1.860,76549.0,89.0,0
187,1.870,76600.0,63.0,0
188,1.880,76527.0,61.0,0
189,1.890,76588.0,60.0,0
190,1.900,76407.0,58.0,0
191,1.910,76171.0,51.0,0
192,1.920,76644.0,39.0,0
193,1.930,76060.0,25.0,0
194,1.940,77434.0,16.0,0
195,1.950,76695.0,20.0,0
196,1.960,76701.0,33.0,0
197,1.970,76484.0,44.0,0
198,1.980,76686.0,51.0,0
199,1.990,76630.0,56.0,0
200,2.000,76553.0,59.0,0
201,2.010,76691.0,59.0,0
202,2.020,76607.0,58.0,0
203,2.030,76641.0,55.0,0
204,2.040,76693.0,52.0,0
205,2.050,76585.0,49.0,0
206,2.060,76731.0,44.0,0
207,2.070,76618.0,40.0,0
208,2.080,76778.0,36.0,0
209,2.090,76694.0,33.0,0
210,2.100,76600.0,31.0,0
211,2.110,76657.0,26.0,0
212,2.120,76638.0,20.0,0
213,2.130,76262.0,-79.0,0
214,2.140,76105.0,-103.0,0
215,2.150,76314.0,-129.0,0
216,2.160,76311.0,-154.0,0
217,2.170,76267.0,-174.0,0
218,2.180,76361.0,-191.0,0
219,2.190,76381.0,-201.0,0
220,2.200,76355.0,-206.0,0
221,2.210,76329.0,-206.0,0
222,2.220,76433.0,-165.0,0
223,2.230,76538.0,-148.0,0
224,2.240,76279.0,-130.0,0
225,2.250,76369.0,-113.0,0
226,2.260,75712.0,-102.0,0
227,2.270,76040.0,-104.0,0
228,2.280,77588.0,-101.0,0
229,2.290,76798.0,27.0,0
230,2.300,76658.0,59.0,0
231,2.310,76883.0,90.0,0
232,2.320,76480.0,118.0,0
233,2.330,76839.0,141.0,0
234,2.340,76697.0,160.0,0
235,2.350,76866.0,176.0,0
236,2.360,76880.0,191.0,0
237,2.370,76917.0,205.0,0
238,2.380,76938.0,218.0,0
239,2.390,76771.0,228.0,0
240,2.400,76961.0,234.0,0
241,2.410,76291.0,233.0,0
242,2.420,76911.0,221.0,0
243,2.430,76969.0,207.0,0
244,2.440,76370.0,192.0,1
245,2.450,77972.0,180.0,0
246,2.460,77771.0,187.0,0
247,2.470,77053.0,211.0,0
248,2.480,76831.0,230.0,0
249,2.490,77022.0,236.0,0
250,2.500,76934.0,201.0,0
251,2.510,76863.0,178.0,0
252,2.520,76404.0,147.0,0
253,2.530,76356.0,3.0,0
254,2.540,77056.0,-28.0,0
255,2.550,77077.0,-54.0,0
256,2.560,76716.0,-86.0,0
257,2.570,76924.0,-92.0,0
258,2.580,76272.0,-103.0,0
259,2.590,78036.0,-111.0,0
260,2.600,78066.0,-96.0,0
261,2.610,77164.0,17.0,0
262,2.620,77191.0,28.0,0
263,2.630,77020.0,34.0,0
264,2.640,77037.0,14.0,0
265,2.650,77259.0,4.0,0
266,2.660,77211.0,-4.0,0
267,2.670,77178.0,-10.0,0
268,2.680,77167.0,-15.0,0
269,2.690,77297.0,-26.0,0
270,2.700,77053.0,-28.0,0
271,2.710,76523.0,-36.0,0
272,2.720,77283.0,17.0,0
273,2.730,77351.0,37.0,0
274,2.740,77361.0,50.0,0
275,2.750,77272.0,55.0,0
276,2.760,77333.0,54.0,0
277,2.770,77110.0,47.0,0
278,2.780,77057.0,32.0,0
279,2.790,77136.0,10.0,0
280,2.800,76926.0,-16.0,0
281,2.810,76872.0,-48.0,0
282,2.820,76987.0,-84.0,0
283,2.830,76865.0,-195.0,0
284,2.840,76697.0,-229.0,0
285,2.850,76864.0,-259.0,0
286,2.860,76858.0,-284.0,0
287,2.870,76034.0,-308.0,0
288,2.880,77890.0,-327.0,0
289,2.890,77786.0,-321.0,0
290,2.900,76948.0,-289.0,0
291,2.910,76849.0,-176.0,0
292,2.920,76827.0,-158.0,0
293,2.930,76989.0,-144.0,0
294,2.940,76906.0,-132.0,0
295,2.950,76929.0,-120.0,0
296,2.960,76853.0,-110.0,0
297,2.970,76858.0,-102.0,0
298,2.980,76979.0,-95.0,0
299,2.990,76917.0,-87.0,0
300,3.000,76850.0,-79.0,0
301,3.010,76978.0,-71.0,0
302,3.020,76960.0,-39.0,0
303,3.030,76119.0,-34.0,0
304,3.040,78003.0,-31.0,0
305,3.050,77989.0,-8.0,0
306,3.060,76996.0,33.0,0
307,3.070,77124.0,73.0,0
308,3.080,77052.0,103.0,0
309,3.090,77012.0,124.0,0
310,3.100,77168.0,137.0,0
311,3.110,76890.0,144.0,0
312,3.120,77177.0,145.0,0
313,3.130,77234.0,144.0,0
314,3.140,77050.0,143.0,0
315,3.150,77245.0,141.0,0
316,3.160,77313.0,140.0,1
317,3.170,77120.0,139.0,0
318,3.180,77351.0,139.0,0
319,3.190,77423.0,141.0,0
320,3.200,77436.0,145.0,0
321,3.210,76611.0,145.0,0
322,3.220,78406.0,142.0,0
323,3.230,78383.0,157.0,0
324,3.240,77463.0,189.0,0
325,3.250,77508.0,218.0,0
326,3.260,77459.0,236.0,0
327,3.270,77364.0,242.0,0
328,3.280,77485.0,238.0,0
329,3.290,77431.0,177.0,0
330,3.300,77455.0,146.0,0
331,3.310,77433.0,117.0,0
332,3.320,77493.0,90.0,0
333,3.330,77330.0,66.0,0
334,3.340,77541.0,43.0,0
335,3.350,77390.0,22.0,0
336,3.360,77503.0,4.0,0
337,3.370,77499.0,-9.0,0
338,3.380,77324.0,-22.0,0
339,3.390,77533.0,-35.0,0
340,3.400,77093.0,-48.0,0
341,3.410,78249.0,-57.0,0
342,3.420,78281.0,-49.0,0
343,3.430,77326.0,-28.0,0
344,3.440,77043.0,-14.0,0
345,3.450,77160.0,-18.0,0
346,3.460,77063.0,-93.0,0
347,3.470,77094.0,-129.0,0
348,3.480,77113.0,-164.0,0
349,3.490,77065.0,-270.0,0
350,3.500,76963.0,-286.0,0
351,3.510,76995.0,-298.0,0
352,3.520,76982.0,-305.0,0
353,3.530,77166.0,-307.0,0
354,3.540,77086.0,-302.0,0
355,3.550,76974.0,-291.0,0
356,3.560,76697.0,-281.0,0
357,3.570,78150.0,-265.0,0
358,3.580,78056.0,-225.0,0
359,3.590,77043.0,-167.0,0
360,3.600,77243.0,-115.0,0
361,3.610,77087.0,-73.0,0
362,3.620,77167.0,-41.0,0
363,3.630,77218.0,-17.0,0
364,3.640,77023.0,0.0,0
365,3.650,77010.0,10.0,0
366,3.660,77191.0,14.0,0
367,3.670,77204.0,16.0,0
368,3.680,77041.0,17.0,0
369,3.690,77091.0,15.0,0
370,3.700,77224.0,13.0,0
371,3.710,77148.0,12.0,0
372,3.720,77307.0,13.0,0
373,3.730,77316.0,18.0,0
374,3.740,77151.0,25.0,0
375,3.750,77381.0,33.0,0
376,3.760,77430.0,43.0,0
377,3.770,76847.0,53.0,0
378,3.780,78128.0,63.0,0
379,3.790,77388.0,191.0,0
380,3.800,76771.0,199.0,0
381,3.810,77403.0,192.0,0
382,3.820,77346.0,177.0,0
383,3.830,77426.0,162.0,0
384,3.840,77363.0,148.0,1
385,3.850,77273.0,133.0,0
386,3.860,77362.0,117.0,0
387,3.870,77236.0,100.0,0
388,3.880,77577.0,84.0,0
389,3.890,76951.0,69.0,0
390,3.900,77279.0,50.0,0
391,3.910,77472.0,32.0,0
392,3.920,77437.0,19.0,0
393,3.930,77439.0,12.0,0
394,3.940,77361.0,8.0,0
395,3.950,77052.0,47.0,0
396,3.960,77450.0,70.0,0
397,3.970,77360.0,81.0,0
398,3.980,77281.0,83.0,0
399,3.990,77332.0,76.0,0
400,4.000,77190.0,64.0,0
401,4.010,77104.0,44.0,0
402,4.020,76962.0,17.0,0
403,4.030,76744.0,-18.0,0
404,4.040,76566.0,-64.0,0
405,4.050,76401.0,-119.0,0
406,4.060,76080.0,-185.0,0
407,4.070,76064.0,-260.0,0
408,4.080,75417.0,-344.0,0
409,4.090,75529.0,-438.0,0
410,4.100,75533.0,-536.0,0
411,4.110,75579.0,-629.0,0
412,4.120,75504.0,-711.0,0
413,4.130,75102.0,-781.0,0
414,4.140,76539.0,-834.0,0
415,4.150,76503.0,-849.0,0
416,4.160,75826.0,-829.0,0
417,4.170,75841.0,-792.0,0
418,4.180,76230.0,-743.0,0
419,4.190,76329.0,-679.0,0
420,4.200,76451.0,-599.0,0
421,4.210,76810.0,-503.0,0
422,4.220,76598.0,-394.0,0
423,4.230,76775.0,-58.0,0
424,4.240,76881.0,47.0,0
425,4.250,76785.0,148.0,0
426,4.260,76857.0,241.0,0
427,4.270,76918.0,324.0,0
428,4.280,76851.0,398.0,0
429,4.290,76790.0,460.0,0
430,4.300,76836.0,548.0,0
431,4.310,76484.0,573.0,0
432,4.320,77929.0,590.0,0
433,4.330,77738.0,617.0,0
434,4.340,76937.0,650.0,0
435,4.350,77045.0,670.0,0
436,4.360,76846.0,674.0,0
437,4.370,77019.0,663.0,0
438,4.380,76867.0,639.0,0
439,4.390,76921.0,606.0,0
440,4.400,76955.0,566.0,1
441,4.410,76968.0,406.0,0
442,4.420,76882.0,343.0,0
443,4.430,77038.0,288.0,0
444,4.440,77088.0,80.0,0
445,4.450,76396.0,53.0,0
446,4.460,76477.0,23.0,0
447,4.470,77030.0,62.0,0
448,4.480,76947.0,81.0,0
449,4.490,76991.0,89.0,0
450,4.500,77194.0,83.0,0
451,4.510,77066.0,77.0,0
452,4.520,77064.0,69.0,0
453,4.530,77161.0,59.0,0
454,4.540,76378.0,-1.0,0
455,4.550,77186.0,-25.0,0
456,4.560,77083.0,-48.0,0
457,4.570,77137.0,-72.0,0
458,4.580,76853.0,-59.0,0
459,4.590,76976.0,-55.0,0
460,4.600,76856.0,-88.0,0
461,4.610,76782.0,-110.0,0
462,4.620,76627.0,-134.0,0
463,4.630,76703.0,-160.0,0
464,4.640,76558.0,-188.0,0
465,4.650,76767.0,-238.0,0
466,4.660,76619.0,-256.0,0
467,4.670,76674.0,-269.0,0
468,4.680,76667.0,-278.0,0
469,4.690,76614.0,-284.0,0
470,4.700,76742.0,-285.0,0
471,4.710,76564.0,-282.0,0
472,4.720,76266.0,-271.0,0
473,4.730,77481.0,-262.0,0
474,4.740,76720.0,-240.0,0
475,4.750,76731.0,-162.0,0
476,4.760,76527.0,-142.0,0
477,4.770,76592.0,-125.0,0
478,4.780,76610.0,-111.0,0
479,4.790,76645.0,-99.0,0
480,4.800,76612.0,-44.0,0
481,4.810,76673.0,-33.0,0
482,4.820,76542.0,-23.0,0
483,4.830,76783.0,21.0,0
484,4.840,76674.0,34.0,0
485,4.850,76404.0,45.0,0
486,4.860,77508.0,55.0,0
487,4.870,76802.0,96.0,0
488,4.880,76594.0,112.0,0
489,4.890,76694.0,121.0,0
490,4.900,76763.0,125.0,0
491,4.910,76527.0,125.0,0
492,4.920,76799.0,108.0,0
493,4.930,76719.0,102.0,0
494,4.940,76757.0,97.0,0
495,4.950,76954.0,88.0,0
496,4.960,76839.0,89.0,0
497,4.970,76749.0,91.0,0
498,4.980,76790.0,92.0,0
499,4.990,76672.0,91.0,0
500,5.000,76315.0,84.0,0
501,5.010,77840.0,78.0,0
502,5.020,76596.0,85.0,0
503,5.030,76929.0,94.0,0
504,5.040,76849.0,99.0,0
505,5.050,76859.0,103.0,0
506,5.060,76959.0,99.0,0
507,5.070,76791.0,94.0,0
508,5.080,76951.0,88.0,0
509,5.090,76908.0,82.0,0
510,5.100,76786.0,76.0,0
511,5.110,76909.0,63.0,0
512,5.120,76446.0,54.0,0
513,5.130,76873.0,39.0,0
514,5.140,76547.0,22.0,0
515,5.150,76775.0,3.0,0
516,5.160,76636.0,-15.0,0
517,5.170,75958.0,-39.0,0
518,5.180,77464.0,-65.0,0
519,5.190,76667.0,-79.0,0
520,5.200,76382.0,-87.0,0
521,5.210,76528.0,-99.0,0
522,5.220,76474.0,-113.0,0
523,5.230,76512.0,-143.0,0
524,5.240,75661.0,-161.0,0
525,5.250,76583.0,-187.0,0
526,5.260,76543.0,-208.0,0
527,5.270,76400.0,-218.0,0
528,5.280,76586.0,-222.0,0
529,5.290,76488.0,-218.0,0
530,5.300,76459.0,-209.0,0
531,5.310,76514.0,-196.0,0
532,5.320,76339.0,-182.0,0
533,5.330,76379.0,-168.0,0
534,5.340,76535.0,-154.0,0
535,5.350,76489.0,-137.0,0
536,5.360,76688.0,-117.0,0
537,5.370,76191.0,-96.0,0
538,5.380,77380.0,-72.0,0
539,5.390,76601.0,-38.0,0
540,5.400,76551.0,-2.0,0
541,5.410,76415.0,26.0,0
542,5.420,76564.0,46.0,0
543,5.430,76454.0,61.0,0
544,5.440,76597.0,71.0,0
545,5.450,76556.0,84.0,0
546,5.460,76519.0,83.0,0
547,5.470,76452.0,81.0,0
548,5.480,76597.0,77.0,0
549,5.490,76479.0,74.0,1
550,5.500,76636.0,71.0,0
551,5.510,76602.0,70.0,0
552,5.520,76622.0,69.0,0
553,5.530,76504.0,69.0,0
554,5.540,76243.0,66.0,0
555,5.550,76648.0,60.0,0
556,5.560,76487.0,57.0,0
557,5.570,76643.0,59.0,0
558,5.580,76610.0,62.0,0
559,5.590,76530.0,64.0,0
560,5.600,76713.0,66.0,0
561,5.610,76607.0,68.0,0
562,5.620,76606.0,71.0,0
563,5.630,76695.0,73.0,0
564,5.640,76624.0,75.0,0
565,5.650,76645.0,80.0,0
566,5.660,76446.0,81.0,0
567,5.670,76654.0,77.0,0
568,5.680,76597.0,72.0,0
569,5.690,76571.0,66.0,0
570,5.700,77677.0,34.0,0
571,5.710,76576.0,39.0,0
572,5.720,76344.0,45.0,0
573,5.730,76651.0,44.0,0
574,5.740,76635.0,40.0,0
575,5.750,76714.0,36.0,0
576,5.760,76472.0,32.0,0
577,5.770,76648.0,25.0,0
578,5.780,76817.0,20.0,0
579,5.790,76711.0,18.0,0
580,5.800,76803.0,19.0,0
581,5.810,76935.0,34.0,0
582,5.820,76981.0,44.0,0
583,5.830,76952.0,57.0,0
584,5.840,76577.0,69.0,0
585,5.850,76962.0,75.0,0
586,5.860,75838.0,77.0,0
587,5.870,75185.0,47.0,0
588,5.880,77570.0,0.0,0
589,5.890,76663.0,-34.0,1
590,5.900,76544.0,-53.0,0
591,5.910,76742.0,-94.0,0
592,5.920,76739.0,-103.0,0
593,5.930,76577.0,-105.0,0
594,5.940,76685.0,-90.0,0
595,5.950,76609.0,-82.0,0
596,5.960,76639.0,-73.0,0
597,5.970,76705.0,-13.0,0
598,5.980,76104.0,-5.0,0
599,5.990,77593.0,0.0,0
600,6.000,77329.0,19.0,0
601,6.010,76685.0,90.0,0
602,6.020,76764.0,97.0,0
603,6.030,76582.0,97.0,0
604,6.040,76764.0,91.0,0
605,6.050,76708.0,82.0,0
606,6.060,76628.0,71.0,0
607,6.070,76520.0,56.0,0
608,6.080,76649.0,37.0,0
609,6.090,76738.0,19.0,0
610,6.100,76828.0,5.0,0
611,6.110,76691.0,-4.0,0
612,6.120,76784.0,-11.0,0
613,6.130,76719.0,-16.0,0
614,6.140,76734.0,-19.0,0
615,6.150,76919.0,-21.0,0
616,6.160,76852.0,-17.0,0
617,6.170,76060.0,-17.0,0
618,6.180,77703.0,-19.0,0
619,6.190,77636.0,-4.0,0
620,6.200,76888.0,26.0,0
621,6.210,76806.0,55.0,0
622,6.220,76770.0,74.0,0
623,6.230,76947.0,84.0,0
624,6.240,76840.0,88.0,0
625,6.250,76364.0,85.0,0
626,6.260,76859.0,71.0,0
627,6.270,76830.0,54.0,0
628,6.280,76818.0,39.0,1
629,6.290,76946.0,25.0,0
630,6.300,76659.0,13.0,0
631,6.310,76805.0,-15.0,0
632,6.320,76940.0,-20.0,0
633,6.330,76974.0,-23.0,0
634,6.340,75981.0,-18.0,0
635,6.350,77450.0,-28.0,0
636,6.360,77832.0,-25.0,0
637,6.370,76917.0,-4.0,0
638,6.380,76955.0,17.0,0
639,6.390,76869.0,32.0,0
640,6.400,76836.0,39.0,0
641,6.410,76875.0,40.0,0
642,6.420,76840.0,35.0,0
643,6.430,77065.0,29.0,0
644,6.440,76851.0,22.0,0
645,6.450,76853.0,15.0,0
646,6.460,77037.0,6.0,0
647,6.470,76952.0,0.0,0
648,6.480,76860.0,-6.0,0
649,6.490,76790.0,-13.0,0
650,6.500,76632.0,-25.0,0
651,6.510,76657.0,-42.0,0
652,6.520,76673.0,-61.0,0
653,6.530,76407.0,-84.0,0
654,6.540,76595.0,-109.0,0
655,6.550,75757.0,-141.0,0
656,6.560,77285.0,-175.0,0
657,6.570,76985.0,-193.0,0
658,6.580,76514.0,-195.0,0
659,6.590,76546.0,-195.0,0
660,6.600,76570.0,-196.0,0
661,6.610,76380.0,-196.0,0
662,6.620,76533.0,-198.0,0
663,6.630,76584.0,-193.0,0
664,6.640,76485.0,-184.0,0
665,6.650,76586.0,-173.0,0
666,6.660,76554.0,-160.0,0
667,6.670,76680.0,-143.0,0
668,6.680,76585.0,-124.0,0
669,6.690,76510.0,-104.0,0
670,6.700,76615.0,-85.0,0
671,6.710,76654.0,-65.0,0
672,6.720,76524.0,-46.0,0
673,6.730,75690.0,-35.0,0
674,6.740,77471.0,-30.0,0
675,6.750,76705.0,32.0,0
676,6.760,76554.0,71.0,0
677,6.770,76709.0,100.0,0
678,6.780,76754.0,121.0,0
679,6.790,76601.0,159.0,0
680,6.800,76708.0,159.0,0
681,6.810,76600.0,154.0,0
682,6.820,76772.0,127.0,0
683,6.830,76770.0,119.0,0
684,6.840,76754.0,113.0,0
685,6.850,76783.0,107.0,0
686,6.860,76838.0,104.0,0
687,6.870,76675.0,100.0,0
688,6.880,76418.0,94.0,0
689,6.890,77823.0,90.0,0
690,6.900,77683.0,106.0,0
691,6.910,76886.0,137.0,0
692,6.920,76892.0,164.0,0
693,6.930,76855.0,180.0,0
694,6.940,76858.0,186.0,0
695,6.950,76946.0,185.0,0
696,6.960,76874.0,179.0,0
697,6.970,76928.0,168.0,0
698,6.980,76899.0,155.0,0
699,6.990,76829.0,108.0,0
700,7.000,77031.0,91.0,0
701,7.010,76890.0,76.0,0
702,7.020,76896.0,60.0,0
703,7.030,77084.0,46.0,0
704,7.040,76952.0,35.0,0
705,7.050,76943.0,25.0,0
706,7.060,77073.0,17.0,0
707,7.070,76358.0,6.0,0
708,7.080,77061.0,40.0,0
709,7.090,76982.0,47.0,0
710,7.100,76640.0,46.0,0
711,7.110,77058.0,35.0,0
712,7.120,76939.0,20.0,0
713,7.130,77013.0,6.0,0
714,7.140,77144.0,-7.0,0
715,7.150,76881.0,-18.0,0
716,7.160,77180.0,-28.0,0
717,7.170,77134.0,-35.0,0
718,7.180,76985.0,-39.0,0
719,7.190,77088.0,-13.0,0
720,7.200,77044.0,18.0,0
721,7.210,77084.0,38.0,0
722,7.220,77002.0,46.0,0
723,7.230,76842.0,43.0,0
724,7.240,76795.0,30.0,0
725,7.250,76648.0,6.0,0
726,7.260,76719.0,-26.0,0
727,7.270,76479.0,-64.0,0
728,7.280,76700.0,-106.0,0
729,7.290,76697.0,-147.0,0
730,7.300,76630.0,-218.0,0
731,7.310,76638.0,-248.0,0
732,7.320,76541.0,-271.0,0
733,7.330,76654.0,-289.0,0
734,7.340,76689.0,-299.0,0
735,7.350,76252.0,-304.0,0
736,7.360,77626.0,-298.0,0
737,7.370,77544.0,-268.0,0
738,7.380,76693.0,-220.0,0
739,7.390,76679.0,-68.0,0
740,7.400,76685.0,-55.0,0
741,7.410,76783.0,-45.0,0
742,7.420,76651.0,-12.0,0
743,7.430,76797.0,-7.0,0
744,7.440,76641.0,-2.0,0
745,7.450,75697.0,-34.0,0
746,7.460,76953.0,-59.0,0
747,7.470,76735.0,-73.0,0
748,7.480,75833.0,-80.0,0
749,7.490,75577.0,-173.0,0
750,7.500,75434.0,-223.0,0
751,7.510,75271.0,-277.0,0
752,7.520,75440.0,-468.0,0
753,7.530,75460.0,-489.0,0
754,7.540,75897.0,-494.0,0
755,7.550,76184.0,-476.0,0
756,7.560,76236.0,-432.0,0
757,7.570,76506.0,-364.0,0
758,7.580,76539.0,-278.0,0
759,7.590,76552.0,-177.0,0
760,7.600,76609.0,-70.0,0
761,7.610,76128.0,34.0,0
762,7.620,76179.0,126.0,0
763,7.630,77578.0,213.0,0
764,7.640,77679.0,314.0,0
765,7.650,76685.0,424.0,0
766,7.660,76607.0,519.0,0
767,7.670,76830.0,695.0,0
768,7.680,76600.0,699.0,0
769,7.690,76709.0,689.0,0
770,7.700,76799.0,668.0,0
771,7.710,76661.0,640.0,0
772,7.720,76841.0,606.0,1
773,7.730,76700.0,568.0,0
774,7.740,76741.0,527.0,0
775,7.750,76753.0,483.0,0
776,7.760,76638.0,438.0,0
777,7.770,76791.0,392.0,0
778,7.780,76970.0,349.0,0
779,7.790,76186.0,306.0,0
780,7.800,76455.0,257.0,0
781,7.810,77763.0,211.0,0
782,7.820,77717.0,191.0,0
783,7.830,76856.0,192.0,0
784,7.840,76752.0,192.0,0
785,7.850,76738.0,182.0,0
786,7.860,76861.0,164.0,0
787,7.870,76834.0,143.0,0
788,7.880,76846.0,120.0,0
789,7.890,76669.0,17.0,0
790,7.900,76584.0,-10.0,0
791,7.910,76714.0,-42.0,0
792,7.920,76447.0,-222.0,0
793,7.930,76536.0,-254.0,0
794,7.940,75785.0,-284.0,0
795,7.950,76116.0,-255.0,0
796,7.960,76499.0,-250.0,0
797,7.970,76350.0,-248.0,0
798,7.980,76400.0,-248.0,0
799,7.990,76487.0,-246.0,0
800,8.000,76438.0,-243.0,0
801,8.010,76324.0,-239.0,0
802,8.020,76459.0,-234.0,0
803,8.030,76364.0,-228.0,0
804,8.040,76191.0,-222.0,0
805,8.050,76546.0,-179.0,0
806,8.060,76358.0,-160.0,0
807,8.070,76505.0,-140.0,0
808,8.080,76211.0,-123.0,0
809,8.090,77374.0,-102.0,0
810,8.100,76584.0,-3.0,0
811,8.110,76470.0,21.0,0
812,8.120,76597.0,40.0,0
813,8.130,76397.0,65.0,0
814,8.140,76556.0,70.0,0
815,8.150,76661.0,73.0,0
816,8.160,76336.0,75.0,0
817,8.170,76671.0,74.0,0
818,8.180,76636.0,73.0,0
819,8.190,76471.0,73.0,0
820,8.200,76658.0,72.0,0
821,8.210,76529.0,72.0,0
822,8.220,76691.0,72.0,0
823,8.230,76599.0,73.0,0
824,8.240,76170.0,71.0,0
825,8.250,76283.0,61.0,0
826,8.260,77510.0,52.0,0
827,8.270,76798.0,60.0,0
828,8.280,75928.0,69.0,0
829,8.290,76555.0,66.0,0
830,8.300,76795.0,59.0,0
831,8.310,76673.0,57.0,0
832,8.320,76571.0,57.0,0
833,8.330,76728.0,57.0,0
834,8.340,76562.0,57.0,0
835,8.350,76644.0,57.0,0
836,8.360,76859.0,41.0,0
837,8.370,76720.0,30.0,0
838,8.380,76671.0,26.0,0
839,8.390,76816.0,26.0,0
840,8.400,76661.0,29.0,0
841,8.410,76678.0,34.0,0
842,8.420,76867.0,39.0,0
843,8.430,76666.0,46.0,0
844,8.440,76404.0,50.0,0
845,8.450,77777.0,56.0,0
846,8.460,76758.0,74.0,0
847,8.470,76909.0,96.0,0
848,8.480,76665.0,111.0,0
849,8.490,76927.0,122.0,0
850,8.500,76809.0,122.0,0
851,8.510,76793.0,120.0,0
852,8.520,76756.0,114.0,0
853,8.530,76545.0,103.0,0
854,8.540,76665.0,86.0,1
855,8.550,76445.0,63.0,0
856,8.560,76352.0,34.0,0
857,8.570,76362.0,-102.0,0
858,8.580,76303.0,-133.0,0
859,8.590,76460.0,-162.0,0
860,8.600,76288.0,-186.0,0
861,8.610,75839.0,-209.0,0
862,8.620,76266.0,-213.0,0
863,8.630,76223.0,-208.0,0
864,8.640,76359.0,-204.0,0
865,8.650,76297.0,-199.0,0
866,8.660,76306.0,-194.0,0
867,8.670,75937.0,-190.0,0
868,8.680,76360.0,-189.0,0
869,8.690,76425.0,-185.0,0
870,8.700,76412.0,-174.0,0
871,8.710,76341.0,-160.0,0
872,8.720,76470.0,-121.0,0
873,8.730,76387.0,-103.0,0
874,8.740,76302.0,-82.0,0
875,8.750,76613.0,13.0,0
876,8.760,76292.0,51.0,0
877,8.770,76516.0,82.0,0
878,8.780,76660.0,107.0,0
879,8.790,76488.0,130.0,0
880,8.800,76406.0,148.0,0
881,8.810,76532.0,160.0,0
882,8.820,76572.0,168.0,0
883,8.830,76647.0,174.0,0
884,8.840,76399.0,179.0,0
885,8.850,76384.0,178.0,0
886,8.860,76633.0,162.0,1
887,8.870,76640.0,158.0,0
888,8.880,76597.0,154.0,0
889,8.890,76199.0,144.0,0
890,8.900,77586.0,141.0,0
891,8.910,76781.0,149.0,0
892,8.920,76479.0,160.0,0
893,8.930,76653.0,141.0,0
894,8.940,76813.0,127.0,0
895,8.950,76598.0,115.0,0
896,8.960,76747.0,102.0,0
897,8.970,76861.0,90.0,0
898,8.980,76642.0,72.0,0
899,8.990,76781.0,62.0,0
900,9.000,76704.0,52.0,0
901,9.010,76739.0,43.0,0
902,9.020,76790.0,34.0,0
903,9.030,76764.0,27.0,0
904,9.040,76696.0,21.0,0
905,9.050,76735.0,14.0,0
906,9.060,76436.0,5.0,0
907,9.070,77646.0,0.0,0
908,9.080,76652.0,4.0,0
909,9.090,76814.0,11.0,0
910,9.100,76587.0,13.0,0
911,9.110,76688.0,9.0,0
912,9.120,75916.0,-4.0,0
913,9.130,76397.0,-32.0,0
914,9.140,76475.0,-157.0,0
915,9.150,76375.0,-183.0,0
916,9.160,76597.0,-202.0,0
917,9.170,76580.0,-213.0,0
918,9.180,76428.0,-216.0,0
919,9.190,76622.0,-185.0,0
920,9.200,76741.0,-162.0,0
921,9.210,75203.0,-149.0,0
922,9.220,77588.0,-134.0,0
923,9.230,76474.0,-99.0,0
924,9.240,76560.0,-64.0,0
925,9.250,76694.0,-36.0,0
926,9.260,76523.0,-14.0,0
927,9.270,76781.0,3.0,0
928,9.280,76688.0,19.0,0
929,9.290,76628.0,33.0,0
930,9.300,76827.0,45.0,0
931,9.310,76719.0,56.0,0
932,9.320,76834.0,66.0,0
933,9.330,76830.0,77.0,0
934,9.340,76601.0,86.0,0
935,9.350,76810.0,91.0,0
936,9.360,76748.0,93.0,0
937,9.370,76724.0,94.0,0
938,9.380,76632.0,92.0,0
939,9.390,76676.0,86.0,0
940,9.400,76891.0,80.0,0
941,9.410,77731.0,60.0,0
942,9.420,76746.0,80.0,0
943,9.430,76745.0,98.0,0
944,9.440,76814.0,107.0,0
945,9.450,76734.0,109.0,0
946,9.460,76805.0,106.0,0
947,9.470,76868.0,99.0,0
948,9.480,76786.0,90.0,0
949,9.490,76858.0,47.0,0
950,9.500,76852.0,37.0,0
951,9.510,76797.0,27.0,0
952,9.520,76889.0,18.0,0
953,9.530,76723.0,9.0,0
954,9.540,76952.0,0.0,0
955,9.550,76978.0,-4.0,0
956,9.560,76761.0,-8.0,0
957,9.570,76227.0,-16.0,0
958,9.580,77909.0,-25.0,0
959,9.590,77909.0,-12.0,0
960,9.600,77036.0,20.0,0
961,9.610,76891.0,50.0,0
962,9.620,76963.0,70.0,0
963,9.630,76912.0,79.0,0
964,9.640,76856.0,80.0,0
965,9.650,77069.0,31.0,0
966,9.660,76787.0,16.0,0
967,9.670,76982.0,1.0,0
968,9.680,76981.0,-12.0,0
969,9.690,77103.0,-23.0,0
970,9.700,76179.0,-36.0,0
971,9.710,76956.0,-57.0,0
972,9.720,77067.0,-77.0,0
973,9.730,77160.0,-87.0,0
974,9.740,76925.0,-89.0,0
975,9.750,76291.0,-93.0,0
976,9.760,78041.0,-96.0,0
977,9.770,77794.0,-78.0,0
978,9.780,77138.0,-43.0,0
979,9.790,77207.0,-7.0,0
980,9.800,76928.0,19.0,0
981,9.810,77048.0,37.0,0
982,9.820,77020.0,45.0,0
983,9.830,76921.0,47.0,0
984,9.840,76703.0,8.0,0
985,9.850,76671.0,-16.0,1
986,9.860,76655.0,-47.0,0
987,9.870,76725.0,-145.0,0
988,9.880,76675.0,-172.0,0
989,9.890,76033.0,-199.0,0
990,9.900,76688.0,-228.0,0
991,9.910,76776.0,-252.0,0
992,9.920,76654.0,-228.0,0
993,9.930,76750.0,-187.0,0
994,9.940,76776.0,-152.0,0
995,9.950,76726.0,-102.0,0
996,9.960,76787.0,-84.0,0
997,9.970,76811.0,-68.0,0
998,9.980,76712.0,-52.0,0
999,9.990,76449.0,-42.0,0
1000,10.000,76847.0,-21.0,0
1001,10.010,76595.0,-12.0,0
1002,10.020,76833.0,-5.0,0
1003,10.030,76858.0,2.0,0
1004,10.040,76684.0,11.0,0
1005,10.050,76534.0,17.0,0
1006,10.060,76310.0,15.0,0
1007,10.070,77585.0,14.0,0
1008,10.080,76776.0,103.0,0
1009,10.090,76810.0,99.0,0
1010,10.100,76746.0,94.0,0
1011,10.110,76909.0,88.0,1
1012,10.120,76888.0,84.0,0
1013,10.130,76754.0,78.0,0
1014,10.140,76942.0,76.0,0
1015,10.150,76901.0,75.0,0
1016,10.160,76770.0,74.0,0
1017,10.170,76915.0,72.0,0
1018,10.180,76924.0,71.0,0
1019,10.190,76899.0,70.0,0
1020,10.200,76509.0,67.0,0
1021,10.210,77836.0,66.0,0
1022,10.220,77850.0,83.0,0
1023,10.230,76910.0,115.0,0
1024,10.240,76217.0,136.0,0
1025,10.250,77143.0,137.0,0
1026,10.260,77113.0,133.0,0
1027,10.270,76954.0,129.0,0
1028,10.280,76957.0,123.0,0
1029,10.290,76947.0,106.0,0
1030,10.300,77192.0,98.0,0
1031,10.310,76789.0,89.0,0
1032,10.320,77076.0,78.0,0
1033,10.330,77175.0,67.0,0
1034,10.340,77006.0,44.0,0
1035,10.350,77253.0,40.0,0
1036,10.360,77114.0,38.0,0
1037,10.370,76768.0,34.0,0
1038,10.380,78140.0,33.0,0
1039,10.390,78054.0,51.0,0
1040,10.400,77290.0,84.0,0
1041,10.410,77283.0,114.0,0
1042,10.420,77141.0,132.0,0
1043,10.430,77285.0,139.0,0
1044,10.440,77167.0,128.0,0
1045,10.450,77106.0,112.0,0
1046,10.460,76840.0,88.0,1
1047,10.470,77007.0,57.0,0
1048,10.480,76862.0,21.0,0
1049,10.490,76778.0,-18.0,0
1050,10.500,76749.0,-61.0,0
1051,10.510,76839.0,-104.0,0
1052,10.520,76959.0,-144.0,0
1053,10.530,76814.0,-177.0,0
1054,10.540,76717.0,-206.0,0
1055,10.550,77857.0,-253.0,0
1056,10.560,76895.0,-214.0,0
1057,10.570,76889.0,-177.0,0
1058,10.580,76774.0,-151.0,0
1059,10.590,76892.0,-133.0,0
1060,10.600,76824.0,-122.0,0
1061,10.610,76645.0,-116.0,0
1062,10.620,76916.0,-116.0,0
1063,10.630,76916.0,-117.0,0
1064,10.640,76879.0,-116.0,0
1065,10.650,76902.0,-113.0,0
1066,10.660,76688.0,-111.0,0
1067,10.670,76913.0,-110.0,0
1068,10.680,76892.0,-108.0,0
1069,10.690,76821.0,-104.0,0
1070,10.700,76941.0,-73.0,0
1071,10.710,76456.0,-67.0,0
1072,10.720,77798.0,-59.0,0
1073,10.730,77786.0,-32.0,0
1074,10.740,77026.0,9.0,0
1075,10.750,77003.0,94.0,0
1076,10.760,77071.0,104.0,0
1077,10.770,76890.0,110.0,0
1078,10.780,77057.0,103.0,0
1079,10.790,77052.0,98.0,1
1080,10.800,76408.0,88.0,0
1081,10.810,77028.0,69.0,0
1082,10.820,77051.0,51.0,0
1083,10.830,76910.0,37.0,0
1084,10.840,76563.0,22.0,0
1085,10.850,76976.0,4.0,0
1086,10.860,76813.0,-12.0,0
1087,10.870,76391.0,-29.0,0
1088,10.880,77695.0,-44.0,0
1089,10.890,77624.0,-40.0,0
1090,10.900,76422.0,-23.0,0
1091,10.910,76398.0,-17.0,0
1092,10.920,76177.0,-29.0,0
1093,10.930,76045.0,-58.0,0
1094,10.940,76058.0,-101.0,0
1095,10.950,75834.0,-152.0,0
1096,10.960,75614.0,-212.0,0
1097,10.970,75571.0,-280.0,0
1098,10.980,75721.0,-348.0,0
1099,10.990,75443.0,-413.0,0
1100,11.000,75659.0,-472.0,0
1101,11.010,75494.0,-522.0,0
1102,11.020,75680.0,-560.0,0
1103,11.030,75952.0,-582.0,0
1104,11.040,75879.0,-584.0,0
1105,11.050,76338.0,-394.0,0
1106,11.060,77761.0,-300.0,0
1107,11.070,77627.0,-177.0,0
1108,11.080,76887.0,-35.0,0
1109,11.090,76613.0,404.0,0
1110,11.100,76726.0,463.0,0
1111,11.110,76805.0,505.0,0
1112,11.120,76595.0,531.0,0
1113,11.130,76650.0,541.0,0
1114,11.140,76598.0,538.0,0
1115,11.150,76531.0,523.0,0
1116,11.160,76643.0,498.0,0
1117,11.170,76610.0,467.0,1
1118,11.180,76506.0,432.0,0
1119,11.190,76639.0,394.0,0
1120,11.200,76437.0,354.0,0
1121,11.210,76608.0,312.0,0
1122,11.220,76347.0,270.0,0
1123,11.230,76016.0,224.0,0
1124,11.240,77514.0,181.0,0
1125,11.250,76594.0,154.0,0
1126,11.260,76607.0,142.0,0
1127,11.270,76631.0,127.0,0
1128,11.280,76608.0,111.0,0
1129,11.290,76678.0,95.0,0
1130,11.300,76494.0,78.0,0
1131,11.310,76644.0,61.0,0
1132,11.320,76716.0,44.0,0
1133,11.330,76531.0,30.0,0
1134,11.340,76742.0,18.0,0
1135,11.350,76722.0,8.0,0
1136,11.360,76652.0,-18.0,0
1137,11.370,76751.0,-20.0,0
1138,11.380,75804.0,-27.0,0
1139,11.390,76743.0,-8.0,0
1140,11.400,76749.0,16.0,0
1141,11.410,76622.0,32.0,0
1142,11.420,76704.0,40.0,0
1143,11.430,76785.0,43.0,0
1144,11.440,76656.0,41.0,0
1145,11.450,76780.0,37.0,0
1146,11.460,76811.0,31.0,0
1147,11.470,76631.0,25.0,0
1148,11.480,76823.0,17.0,0
1149,11.490,76786.0,10.0,0
1150,11.500,76582.0,2.0,0
1151,11.510,76787.0,-7.0,0
1152,11.520,76864.0,-15.0,0
1153,11.530,76687.0,-21.0,0
1154,11.540,76776.0,-26.0,0
1155,11.550,76898.0,-30.0,0
1156,11.560,76759.0,-33.0,0
1157,11.570,76718.0,-22.0,0
1158,11.580,76648.0,-17.0,0
1159,11.590,76854.0,-16.0,0
1160,11.600,76851.0,-16.0,0
1161,11.610,76632.0,-18.0,0
1162,11.620,76833.0,-21.0,0
1163,11.630,76760.0,-25.0,0
1164,11.640,76769.0,-29.0,0
1165,11.650,76846.0,-33.0,0
1166,11.660,76653.0,-36.0,0
1167,11.670,76916.0,-40.0,0
1168,11.680,76906.0,-40.0,0
1169,11.690,76501.0,-41.0,0
1170,11.700,76838.0,-44.0,0
1171,11.710,76935.0,-46.0,0
1172,11.720,77928.0,-21.0,0
1173,11.730,76761.0,0.0,0
1174,11.740,76831.0,22.0,0
1175,11.750,76768.0,34.0,0
1176,11.760,76618.0,37.0,0
1177,11.770,76648.0,31.0,0
1178,11.780,76556.0,17.0,0
1179,11.790,76462.0,-3.0,0
1180,11.800,76498.0,-29.0,0
1181,11.810,76388.0,-147.0,0
1182,11.820,76519.0,-171.0,0
1183,11.830,76509.0,-189.0,0
1184,11.840,76044.0,-205.0,0
1185,11.850,75667.0,-241.0,0
1186,11.860,75901.0,-254.0,0
1187,11.870,77401.0,-262.0,0
1188,11.880,76540.0,-248.0,0
1189,11.890,76448.0,-221.0,0
1190,11.900,76321.0,-193.0,0
1191,11.910,76343.0,-168.0,0
1192,11.920,76444.0,-145.0,0
1193,11.930,76546.0,-122.0,0
1194,11.940,76635.0,-4.0,0
1195,11.950,76516.0,23.0,0
1196,11.960,76375.0,47.0,0
1197,11.970,76603.0,64.0,0
1198,11.980,76606.0,80.0,0
1199,11.990,76480.0,109.0,0
1200,12.000,76448.0,113.0,0
1201,12.010,76631.0,114.0,0
1202,12.020,76168.0,112.0,0
1203,12.030,77441.0,113.0,0
1204,12.040,76607.0,124.0,0
1205,12.050,76476.0,137.0,0
1206,12.060,76701.0,145.0,0
1207,12.070,76615.0,151.0,0
1208,12.080,76719.0,154.0,0
1209,12.090,76735.0,157.0,0
1210,12.100,76609.0,160.0,0
1211,12.110,76629.0,159.0,0
1212,12.120,76687.0,156.0,0
1213,12.130,76562.0,150.0,0
1214,12.140,76754.0,143.0,1
1215,12.150,76604.0,136.0,0
1216,12.160,76640.0,128.0,0
1217,12.170,76708.0,119.0,0
1218,12.180,76699.0,110.0,0
1219,12.190,75745.0,96.0,0
1220,12.200,76769.0,71.0,0
1221,12.210,77443.0,8.0,0
1222,12.220,76629.0,12.0,0
1223,12.230,76652.0,21.0,0
1224,12.240,76618.0,27.0,0
1225,12.250,76742.0,31.0,0
1226,12.260,76762.0,35.0,0
1227,12.270,76491.0,35.0,0
1228,12.280,76783.0,32.0,0
1229,12.290,76602.0,1.0,0
1230,12.300,76769.0,-15.0,0
1231,12.310,76786.0,-25.0,0
1232,12.320,76696.0,-28.0,0
1233,12.330,76773.0,-27.0,0
1234,12.340,76752.0,-23.0,0
1235,12.350,76573.0,-18.0,0
1236,12.360,76272.0,-18.0,0
1237,12.370,77343.0,-19.0,0
1238,12.380,76387.0,-14.0,0
1239,12.390,76500.0,-10.0,0
1240,12.400,76466.0,-14.0,0
1241,12.410,76424.0,-22.0,0
1242,12.420,76338.0,-35.0,0
1243,12.430,76352.0,-52.0,0
1244,12.440,76474.0,-70.0,0
1245,12.450,76406.0,-87.0,0
1246,12.460,76246.0,-102.0,0
1247,12.470,76507.0,-117.0,0
1248,12.480,76422.0,-128.0,0
1249,12.490,76317.0,-135.0,0
1250,12.500,76486.0,-140.0,0
1251,12.510,76244.0,-142.0,0
1252,12.520,76406.0,-144.0,0
1253,12.530,76418.0,-143.0,0
1254,12.540,76340.0,-139.0,0
1255,12.550,76354.0,-134.0,0
1256,12.560,76294.0,-128.0,0
1257,12.570,76056.0,-125.0,0
1258,12.580,77474.0,-115.0,0
1259,12.590,76448.0,-90.0,0
1260,12.600,76569.0,-59.0,0
1261,12.610,76583.0,-30.0,0
1262,12.620,76448.0,-4.0,0
1263,12.630,76409.0,16.0,0
1264,12.640,76560.0,31.0,0
1265,12.650,76448.0,44.0,0
1266,12.660,76465.0,53.0,0
1267,12.670,76539.0,59.0,0
1268,12.680,76587.0,64.0,0
1269,12.690,76479.0,69.0,0
1270,12.700,76526.0,52.0,0
1271,12.710,76372.0,41.0,1
1272,12.720,76449.0,31.0,0
1273,12.730,76511.0,24.0,0
1274,12.740,76469.0,18.0,0
1275,12.750,76495.0,33.0,0
1276,12.760,76753.0,46.0,0
1277,12.770,76027.0,84.0,0
1278,12.780,76847.0,86.0,0
1279,12.790,76984.0,90.0,0
1280,12.800,76962.0,102.0,0
1281,12.810,76841.0,120.0,0
1282,12.820,77016.0,138.0,0
1283,12.830,76904.0,158.0,0
1284,12.840,76880.0,175.0,0
1285,12.850,77026.0,190.0,0
1286,12.860,76929.0,202.0,0
1287,12.870,76666.0,209.0,0
1288,12.880,75994.0,190.0,0
1289,12.890,77908.0,172.0,0
1290,12.900,77912.0,171.0,0
1291,12.910,77064.0,189.0,0
1292,12.920,76872.0,206.0,0
1293,12.930,77194.0,211.0,0
1294,12.940,77095.0,211.0,0
1295,12.950,76982.0,206.0,0
1296,12.960,77145.0,196.0,0
1297,12.970,77132.0,182.0,0
1298,12.980,76999.0,166.0,0
1299,12.990,77148.0,147.0,0
1300,13.000,77044.0,127.0,0
1301,13.010,76967.0,105.0,0
1302,13.020,77180.0,81.0,0
1303,13.030,77021.0,59.0,0
1304,13.040,77258.0,38.0,0
1305,13.050,77228.0,22.0,0
1306,13.060,77231.0,9.0,0
1307,13.070,77215.0,0.0,0
1308,13.080,77250.0,-6.0,0
1309,13.090,76555.0,-16.0,0
1310,13.100,77709.0,-31.0,0
1311,13.110,78026.0,-33.0,0
1312,13.120,77262.0,-19.0,0
1313,13.130,77124.0,4.0,0
1314,13.140,77035.0,-2.0,0
1315,13.150,76774.0,-19.0,0
1316,13.160,76942.0,-45.0,0
1317,13.170,76751.0,-77.0,0
1318,13.180,76818.0,-114.0,0
1319,13.190,76869.0,-152.0,0
1320,13.200,76660.0,-189.0,0
1321,13.210,76848.0,-225.0,0
1322,13.220,76855.0,-256.0,0
1323,13.230,76700.0,-281.0,0
1324,13.240,76863.0,-301.0,0
1325,13.250,76741.0,-316.0,0
1326,13.260,76193.0,-331.0,0
1327,13.270,76790.0,-347.0,0
1328,13.280,76000.0,-365.0,0
1329,13.290,77760.0,-375.0,0
1330,13.300,77721.0,-358.0,0
1331,13.310,76762.0,-317.0,0
1332,13.320,76820.0,-274.0,0
1333,13.330,76736.0,-237.0,0
1334,13.340,76777.0,-207.0,0
1335,13.350,76836.0,-182.0,0
1336,13.360,76676.0,-160.0,0
1337,13.370,76913.0,-88.0,0
1338,13.380,76790.0,-72.0,0
1339,13.390,76878.0,-57.0,0
1340,13.400,76950.0,-43.0,0
1341,13.410,76782.0,-29.0,0
1342,13.420,76822.0,-17.0,0
1343,13.430,76912.0,-8.0,0
1344,13.440,76678.0,0.0,0
1345,13.450,76929.0,5.0,0
1346,13.460,76207.0,5.0,0
1347,13.470,77749.0,4.0,0
1348,13.480,77859.0,22.0,0
1349,13.490,76999.0,58.0,0
1350,13.500,76080.0,87.0,0
1351,13.510,76938.0,95.0,0
1352,13.520,77039.0,94.0,0
1353,13.530,77038.0,95.0,0
1354,13.540,76936.0,98.0,0
1355,13.550,76972.0,99.0,0
1356,13.560,77043.0,100.0,0
1357,13.570,76926.0,101.0,0
1358,13.580,76952.0,100.0,0
1359,13.590,76445.0,94.0,0
1360,13.600,77007.0,81.0,0
1361,13.610,76980.0,68.0,0
1362,13.620,76928.0,58.0,0
1363,13.630,76967.0,51.0,0
1364,13.640,77101.0,47.0,0
1365,13.650,76278.0,43.0,0
1366,13.660,77944.0,36.0,0
1367,13.670,78121.0,49.0,0
1368,13.680,77069.0,84.0,0
1369,13.690,77082.0,117.0,0
1370,13.700,77187.0,131.0,0
1371,13.710,76929.0,123.0,0
1372,13.720,76450.0,108.0,1
1373,13.730,77007.0,35.0,0
1374,13.740,77197.0,25.0,0
1375,13.750,77234.0,20.0,0
1376,13.760,77019.0,17.0,0
1377,13.770,77206.0,16.0,0
1378,13.780,77076.0,15.0,0
1379,13.790,77065.0,14.0,0
1380,13.800,76856.0,10.0,0
1381,13.810,78159.0,11.0,0
1382,13.820,77962.0,30.0,0
1383,13.830,76988.0,62.0,0
1384,13.840,76987.0,88.0,0
1385,13.850,76755.0,72.0,0
1386,13.860,76756.0,46.0,0
1387,13.870,76806.0,12.0,0
1388,13.880,76706.0,-25.0,0
1389,13.890,76767.0,-103.0,0
1390,13.900,76666.0,-138.0,0
1391,13.910,76831.0,-170.0,0
1392,13.920,76829.0,-196.0,0
1393,13.930,76858.0,-214.0,0
1394,13.940,76637.0,-226.0,0
1395,13.950,76758.0,-235.0,0
1396,13.960,76749.0,-241.0,0
1397,13.970,76540.0,-243.0,0
1398,13.980,76228.0,-249.0,0
1399,13.990,77660.0,-250.0,0
1400,14.000,77495.0,-230.0,0
1401,14.010,76781.0,-157.0,0
1402,14.020,76657.0,-129.0,0
1403,14.030,76839.0,-107.0,0
1404,14.040,76940.0,-58.0,0
1405,14.050,76711.0,-43.0,0
1406,14.060,76746.0,-32.0,0
1407,14.070,76888.0,-23.0,0
1408,14.080,76665.0,-15.0,0
1409,14.090,76785.0,-3.0,0
1410,14.100,76714.0,1.0,0
1411,14.110,76403.0,2.0,0
1412,14.120,76771.0,-3.0,0
1413,14.130,76750.0,-8.0,0
1414,14.140,76896.0,-10.0,0
1415,14.150,76321.0,-11.0,0
1416,14.160,77657.0,-9.0,0
1417,14.170,77787.0,11.0,0
1418,14.180,76715.0,49.0,0
1419,14.190,76936.0,83.0,0
1420,14.200,76622.0,105.0,0
1421,14.210,76797.0,116.0,0
1422,14.220,76918.0,118.0,0
1423,14.230,76523.0,113.0,0
1424,14.240,76773.0,101.0,0
1425,14.250,77005.0,88.0,1
1426,14.260,76914.0,78.0,0
1427,14.270,76893.0,67.0,0
1428,14.280,76924.0,63.0,0
1429,14.290,76854.0,61.0,0
1430,14.300,76943.0,58.0,0
1431,14.310,76804.0,56.0,0
1432,14.320,76995.0,54.0,0
1433,14.330,76541.0,51.0,0
1434,14.340,77803.0,50.0,0
1435,14.350,77948.0,68.0,0
1436,14.360,76571.0,99.0,0
1437,14.370,76896.0,120.0,0
1438,14.380,77017.0,128.0,0
1439,14.390,76864.0,130.0,0
1440,14.400,77093.0,126.0,0
1441,14.410,76880.0,120.0,0
1442,14.420,77132.0,111.0,0
1443,14.430,77114.0,103.0,0
1444,14.440,77109.0,70.0,0
1445,14.450,77123.0,56.0,0
1446,14.460,77081.0,22.0,0
1447,14.470,77223.0,66.0,0
1448,14.480,77091.0,93.0,0
1449,14.490,76784.0,106.0,0
1450,14.500,77218.0,104.0,0
1451,14.510,76567.0,47.0,0
1452,14.520,76958.0,15.0,0
1453,14.530,76721.0,-20.0,0
1454,14.540,76783.0,-57.0,0
1455,14.550,76619.0,-95.0,0
1456,14.560,75507.0,-141.0,0
1457,14.570,76305.0,-204.0,0
1458,14.580,76149.0,-271.0,0
1459,14.590,75943.0,-335.0,0
1460,14.600,75436.0,-401.0,0
1461,14.610,75681.0,-470.0,0
1462,14.620,75175.0,-541.0,0
1463,14.630,76386.0,-604.0,0
1464,14.640,76189.0,-643.0,0
1465,14.650,75204.0,-662.0,0
1466,14.660,75250.0,-680.0,0
1467,14.670,75246.0,-759.0,0
1468,14.680,75218.0,-763.0,0
1469,14.690,75479.0,-752.0,0
1470,14.700,75771.0,-721.0,0
1471,14.710,75742.0,-668.0,0
1472,14.720,76027.0,-595.0,0
1473,14.730,76268.0,-504.0,0
1474,14.740,76179.0,-395.0,0
1475,14.750,76410.0,-276.0,0
1476,14.760,76446.0,-150.0,0
1477,14.770,76391.0,-22.0,0
1478,14.780,76516.0,102.0,0
1479,14.790,76563.0,220.0,0
1480,14.800,75893.0,326.0,0
1481,14.810,77390.0,418.0,0
1482,14.820,77339.0,513.0,0
1483,14.830,76574.0,747.0,0
1484,14.840,76522.0,753.0,0
1485,14.850,76303.0,746.0,0
1486,14.860,76618.0,630.0,0
1487,14.870,76346.0,593.0,0
1488,14.880,76617.0,552.0,0
1489,14.890,76596.0,512.0,0
1490,14.900,76401.0,472.0,0
1491,14.910,76528.0,431.0,0
1492,14.920,76592.0,391.0,0
1493,14.930,76480.0,352.0,0
1494,14.940,76600.0,316.0,0
1495,14.950,75951.0,278.0,0
1496,14.960,77543.0,242.0,0
1497,14.970,77510.0,228.0,0
1498,14.980,76717.0,233.0,0
1499,14.990,76740.0,240.0,0
1500,15.000,76442.0,237.0,0
1501,15.010,76502.0,224.0,0
1502,15.020,76703.0,203.0,0
1503,15.030,76584.0,179.0,0
1504,15.040,76740.0,153.0,0
1505,15.050,76026.0,124.0,0
1506,15.060,76544.0,87.0,0
1507,15.070,76692.0,48.0,0
1508,15.080,76746.0,17.0,0
1509,15.090,76461.0,-7.0,0
1510,15.100,76740.0,-57.0,0
1511,15.110,76665.0,-63.0,0
1512,15.120,76834.0,-66.0,0
1513,15.130,76827.0,-66.0,0
1514,15.140,76698.0,-29.0,0
1515,15.150,76795.0,-30.0,0
1516,15.160,76656.0,-33.0,0
1517,15.170,76919.0,-42.0,0
1518,15.180,76789.0,-43.0,0
1519,15.190,76920.0,-43.0,0
1520,15.200,76840.0,-41.0,0
1521,15.210,76714.0,-40.0,0
1522,15.220,76852.0,-41.0,0
1523,15.230,76756.0,-43.0,0
1524,15.240,76924.0,-45.0,0
1525,15.250,76820.0,-47.0,0
1526,15.260,76686.0,-49.0,0
1527,15.270,76809.0,-53.0,0
1528,15.280,76707.0,-59.0,0
1529,15.290,76432.0,-128.0,0
1530,15.300,76441.0,-203.0,0
1531,15.310,76310.0,-222.0,0
1532,15.320,76354.0,-239.0,0
1533,15.330,76392.0,-253.0,0
1534,15.340,76261.0,-264.0,0
1535,15.350,76392.0,-272.0,0
1536,15.360,76437.0,-274.0,0
1537,15.370,76279.0,-267.0,0
1538,15.380,75991.0,-260.0,0
1539,15.390,76344.0,-255.0,0
1540,15.400,76241.0,-248.0,0
1541,15.410,76402.0,-236.0,0
1542,15.420,76451.0,-220.0,0
1543,15.430,75941.0,-201.0,0
1544,15.440,77433.0,-178.0,0
1545,15.450,76303.0,-140.0,0
1546,15.460,76537.0,-99.0,0
1547,15.470,76381.0,-28.0,0
1548,15.480,76457.0,0.0,0
1549,15.490,76464.0,23.0,0
1550,15.500,76425.0,43.0,0
1551,15.510,76432.0,59.0,0
1552,15.520,76342.0,71.0,0
1553,15.530,76402.0,79.0,0
1554,15.540,76478.0,83.0,0
1555,15.550,76626.0,89.0,0
1556,15.560,76596.0,97.0,0
1557,15.570,76557.0,107.0,0
1558,15.580,76402.0,115.0,0
1559,15.590,76592.0,121.0,0
1560,15.600,76165.0,122.0,0
1561,15.610,76358.0,117.0,0
1562,15.620,76515.0,109.0,0
1563,15.630,76020.0,98.0,0
1564,15.640,76091.0,80.0,0
1565,15.650,76505.0,59.0,0
1566,15.660,76547.0,43.0,0
1567,15.670,77264.0,41.0,0
1568,15.680,77534.0,62.0,0
1569,15.690,76640.0,101.0,0
1570,15.700,76482.0,181.0,0
1571,15.710,76596.0,180.0,0
1572,15.720,76608.0,174.0,0
1573,15.730,76561.0,166.0,0
1574,15.740,76716.0,155.0,1
1575,15.750,75952.0,140.0,0
1576,15.760,76574.0,115.0,0
1577,15.770,76673.0,90.0,0
1578,15.780,76648.0,23.0,0
1579,15.790,76211.0,20.0,0
1580,15.800,77566.0,19.0,0
1581,15.810,76571.0,29.0,0
1582,15.820,76802.0,42.0,0
1583,15.830,76682.0,53.0,0
1584,15.840,76543.0,59.0,0
1585,15.850,76712.0,60.0,0
1586,15.860,76669.0,58.0,0
1587,15.870,76669.0,54.0,0
1588,15.880,76745.0,49.0,0
1589,15.890,76640.0,44.0,0
1590,15.900,76825.0,38.0,0
1591,15.910,76777.0,35.0,0
1592,15.920,76542.0,31.0,0
1593,15.930,76233.0,-45.0,0
1594,15.940,76400.0,-71.0,0
1595,15.950,76433.0,-97.0,0
1596,15.960,75730.0,-125.0,0
1597,15.970,77329.0,-150.0,0
1598,15.980,76282.0,-162.0,0
1599,15.990,76233.0,-167.0,0
1600,16.000,76332.0,-174.0,0
1601,16.010,76123.0,-182.0,0
1602,16.020,76325.0,-191.0,0
1603,16.030,76380.0,-197.0,0
1604,16.040,76223.0,-200.0,0
1605,16.050,76345.0,-200.0,0
1606,16.060,76313.0,-197.0,0
1607,16.070,76238.0,-171.0,0
1608,16.080,76365.0,-162.0,0
1609,16.090,76235.0,-149.0,0
1610,16.100,76449.0,-135.0,0
1611,16.110,76405.0,-117.0,0
1612,16.120,76272.0,-97.0,0
1613,16.130,76367.0,-77.0,0
1614,16.140,76015.0,-60.0,0
1615,16.150,77268.0,-42.0,0
1616,16.160,76408.0,-12.0,0
1617,16.170,76354.0,19.0,0
1618,16.180,76417.0,44.0,0
1619,16.190,76444.0,64.0,0
1620,16.200,76348.0,80.0,0
1621,16.210,75740.0,86.0,0
1622,16.220,76383.0,80.0,0
1623,16.230,76289.0,70.0,0
1624,16.240,76469.0,63.0,0
1625,16.250,76238.0,58.0,1
1626,16.260,76395.0,54.0,0
1627,16.270,76535.0,52.0,0
1628,16.280,76428.0,55.0,0
1629,16.290,76429.0,67.0,0
1630,16.300,76218.0,68.0,0
1631,16.310,75929.0,64.0,0
1632,16.320,77302.0,59.0,0
1633,16.330,76645.0,68.0,0
1634,16.340,76679.0,88.0,0
1635,16.350,76452.0,106.0,0
1636,16.360,76692.0,122.0,0
1637,16.370,76798.0,137.0,0
1638,16.380,76569.0,153.0,0
1639,16.390,76872.0,167.0,0
1640,16.400,76674.0,179.0,0
1641,16.410,76931.0,191.0,0
1642,16.420,76930.0,204.0,0
1643,16.430,76995.0,218.0,0
1644,16.440,76641.0,230.0,0
1645,16.450,76823.0,248.0,0
1646,16.460,76911.0,247.0,0
1647,16.470,77130.0,241.0,0
1648,16.480,76432.0,232.0,0
1649,16.490,78023.0,221.0,0
1650,16.500,77937.0,227.0,0
1651,16.510,76977.0,248.0,0
1652,16.520,77047.0,261.0,0
1653,16.530,77162.0,262.0,0
1654,16.540,76730.0,252.0,0
1655,16.550,77127.0,230.0,0
1656,16.560,77156.0,204.0,0
1657,16.570,77248.0,179.0,1
1658,16.580,77046.0,154.0,0
1659,16.590,77091.0,127.0,0
1660,16.600,77264.0,101.0,0
1661,16.610,77002.0,76.0,0
1662,16.620,77328.0,-12.0,0
1663,16.630,77096.0,-23.0,0
1664,16.640,77104.0,-36.0,0
1665,16.650,76574.0,-55.0,0
1666,16.660,76979.0,-70.0,0
1667,16.670,76811.0,-67.0,0
1668,16.680,76707.0,-80.0,0
1669,16.690,76714.0,-106.0,0
1670,16.700,76688.0,-141.0,0
1671,16.710,76356.0,-183.0,0
1672,16.720,76531.0,-233.0,0
1673,16.730,76658.0,-283.0,0
1674,16.740,76557.0,-328.0,0
1675,16.750,76626.0,-415.0,0
1676,16.760,76495.0,-428.0,0
1677,16.770,76815.0,-435.0,0
1678,16.780,76584.0,-433.0,0
1679,16.790,76790.0,-424.0,0
1680,16.800,76689.0,-407.0,0
1681,16.810,76720.0,-385.0,0
1682,16.820,75934.0,-365.0,0
1683,16.830,77502.0,-346.0,0
1684,16.840,77688.0,-308.0,0
1685,16.850,76781.0,-250.0,0
1686,16.860,76634.0,-193.0,0
1687,16.870,76757.0,-147.0,0
1688,16.880,76859.0,-109.0,0
1689,16.890,76708.0,-77.0,0
1690,16.900,76268.0,-54.0,0
1691,16.910,76681.0,-44.0,0
1692,16.920,76789.0,-27.0,0
1693,16.930,76670.0,-34.0,0
1694,16.940,76793.0,-36.0,0
1695,16.950,76859.0,4.0,0
1696,16.960,76176.0,16.0,0
1697,16.970,77619.0,26.0,0
1698,16.980,77649.0,52.0,0
1699,16.990,76909.0,94.0,0
1700,17.000,76850.0,132.0,0
1701,17.010,76778.0,160.0,0
1702,17.020,76927.0,177.0,0
1703,17.030,76840.0,188.0,0
1704,17.040,76791.0,192.0,0
1705,17.050,76807.0,189.0,0
1706,17.060,76861.0,182.0,0
1707,17.070,77037.0,173.0,0
1708,17.080,76962.0,166.0,1
1709,17.090,76931.0,160.0,0
1710,17.100,76970.0,153.0,0
1711,17.110,76793.0,128.0,0
1712,17.120,76985.0,120.0,0
1713,17.130,77165.0,113.0,0
1714,17.140,77040.0,119.0,0
1715,17.150,77060.0,141.0,0
1716,17.160,77155.0,154.0,0
1717,17.170,76948.0,159.0,0
1718,17.180,77095.0,156.0,0
1719,17.190,77163.0,149.0,0
1720,17.200,77197.0,140.0,0
1721,17.210,76915.0,128.0,0
1722,17.220,77087.0,113.0,0
1723,17.230,77122.0,95.0,0
1724,17.240,77176.0,78.0,0
1725,17.250,77092.0,63.0,0
1726,17.260,77136.0,49.0,0
1727,17.270,77040.0,34.0,0
1728,17.280,77203.0,21.0,0
1729,17.290,77165.0,9.0,0
1730,17.300,77007.0,0.0,0
1731,17.310,77265.0,-9.0,0
1732,17.320,76808.0,-19.0,0
1733,17.330,78113.0,-24.0,0
1734,17.340,78215.0,-8.0,0
1735,17.350,76784.0,20.0,0
1736,17.360,77240.0,40.0,0
1737,17.370,77056.0,38.0,0
1738,17.380,77219.0,24.0,0
1739,17.390,77122.0,8.0,0
1740,17.400,76840.0,-11.0,0
1741,17.410,76965.0,-37.0,0
1742,17.420,76677.0,-97.0,0
1743,17.430,76857.0,-131.0,0
1744,17.440,76854.0,-164.0,0
1745,17.450,76679.0,-195.0,0
1746,17.460,76748.0,-223.0,0
1747,17.470,76203.0,-286.0,0
1748,17.480,77756.0,-300.0,0
1749,17.490,77809.0,-288.0,0
1750,17.500,76726.0,-255.0,0
1751,17.510,76738.0,-176.0,0
1752,17.520,76830.0,-161.0,0
1753,17.530,76831.0,-149.0,0
1754,17.540,76798.0,-130.0,0
1755,17.550,76852.0,-123.0,0
1756,17.560,76921.0,-114.0,0
1757,17.570,76784.0,-102.0,0
1758,17.580,76874.0,-90.0,0
1759,17.590,76918.0,-76.0,0
1760,17.600,76838.0,-61.0,0
1761,17.610,76804.0,-46.0,0
1762,17.620,76909.0,-33.0,0
1763,17.630,76535.0,-22.0,0
1764,17.640,77487.0,-11.0,0
1765,17.650,77652.0,12.0,0
1766,17.660,76964.0,49.0,0
1767,17.670,76897.0,82.0,0
1768,17.680,76835.0,105.0,0
1769,17.690,76891.0,119.0,0
1770,17.700,76754.0,123.0,0
1771,17.710,76795.0,113.0,0
1772,17.720,77053.0,102.0,1
1773,17.730,76933.0,92.0,0
1774,17.740,77011.0,85.0,0
1775,17.750,76891.0,79.0,0
1776,17.760,76913.0,73.0,0
1777,17.770,77009.0,68.0,0
1778,17.780,76825.0,63.0,0
1779,17.790,77124.0,59.0,0
1780,17.800,77004.0,57.0,0
1781,17.810,76528.0,54.0,0
1782,17.820,77919.0,53.0,0
1783,17.830,77930.0,70.0,0
1784,17.840,76956.0,102.0,0
1785,17.850,77056.0,129.0,0
1786,17.860,76803.0,143.0,0
1787,17.870,77051.0,145.0,0
1788,17.880,77010.0,140.0,0
1789,17.890,76900.0,130.0,0
1790,17.900,77052.0,116.0,0
1791,17.910,77081.0,65.0,0
1792,17.920,76996.0,53.0,0
1793,17.930,77058.0,41.0,0
1794,17.940,76623.0,27.0,0
1795,17.950,77091.0,9.0,0
1796,17.960,77136.0,-7.0,0
1797,17.970,77144.0,-16.0,0
1798,17.980,77200.0,-20.0,0
1799,17.990,76249.0,-26.0,0
1800,18.000,77837.0,-35.0,0
1801,18.010,77011.0,42.0,0
1802,18.020,77083.0,50.0,0
1803,18.030,77026.0,51.0,0
1804,18.040,76656.0,43.0,0
1805,18.050,76799.0,25.0,0
1806,18.060,76643.0,0.0,0
1807,18.070,76338.0,-35.0,0
1808,18.080,76249.0,-81.0,0
1809,18.090,76099.0,-136.0,0
1810,18.100,75695.0,-200.0,0
1811,18.110,75662.0,-275.0,0
1812,18.120,75662.0,-355.0,0
1813,18.130,75450.0,-436.0,0
1814,18.140,75276.0,-516.0,0
1815,18.150,75363.0,-594.0,0
1816,18.160,75175.0,-664.0,0
1817,18.170,74601.0,-730.0,0
1818,18.180,76035.0,-785.0,0
1819,18.190,76009.0,-811.0,0
1820,18.200,74987.0,-808.0,0
1821,18.210,75177.0,-796.0,0
1822,18.220,75335.0,-779.0,0
1823,18.230,75309.0,-752.0,0
1824,18.240,75691.0,-711.0,0
1825,18.250,75951.0,-653.0,0
1826,18.260,75921.0,-576.0,0
1827,18.270,76186.0,-483.0,0
1828,18.280,76354.0,-375.0,0
1829,18.290,76317.0,-256.0,0
1830,18.300,76391.0,-132.0,0
1831,18.310,76370.0,-8.0,0
1832,18.320,76387.0,110.0,0
1833,18.330,76388.0,220.0,0
1834,18.340,76438.0,320.0,0
1835,18.350,75575.0,401.0,0
1836,18.360,76303.0,458.0,0
1837,18.370,76390.0,500.0,0
1838,18.380,75905.0,532.0,0
1839,18.390,77308.0,557.0,0
1840,18.400,77354.0,594.0,0
1841,18.410,76415.0,639.0,0
1842,18.420,76255.0,673.0,0
1843,18.430,76392.0,634.0,0
1844,18.440,76198.0,598.0,1
1845,18.450,76337.0,557.0,0
1846,18.460,76355.0,512.0,0
1847,18.470,76309.0,466.0,0
1848,18.480,76428.0,421.0,0
1849,18.490,76265.0,378.0,0
1850,18.500,76038.0,334.0,0
1851,18.510,76459.0,288.0,0
1852,18.520,76456.0,248.0,0
1853,18.530,76423.0,215.0,0
1854,18.540,76492.0,189.0,0
1855,18.550,76240.0,166.0,0
1856,18.560,77361.0,121.0,0
1857,18.570,77222.0,121.0,0
1858,18.580,76456.0,138.0,0
1859,18.590,76408.0,151.0,0
1860,18.600,76412.0,154.0,0
1861,18.610,76319.0,149.0,0
1862,18.620,76480.0,137.0,0
1863,18.630,76450.0,121.0,0
1864,18.640,76383.0,103.0,0
1865,18.650,76390.0,82.0,0
1866,18.660,76450.0,61.0,0
1867,18.670,76314.0,39.0,0
1868,18.680,76436.0,17.0,0
1869,18.690,76513.0,-2.0,0
1870,18.700,76275.0,-20.0,0
1871,18.710,76412.0,-37.0,0
1872,18.720,76446.0,-53.0,0
1873,18.730,76262.0,-67.0,0
1874,18.740,76467.0,-80.0,0
1875,18.750,76472.0,-90.0,0
1876,18.760,75954.0,-99.0,0
1877,18.770,76914.0,-109.0,0
1878,18.780,76574.0,-109.0,0
1879,18.790,76525.0,-101.0,0
1880,18.800,76463.0,-92.0,0
1881,18.810,76404.0,-84.0,0
1882,18.820,76467.0,-78.0,0
1883,18.830,76272.0,-74.0,0
1884,18.840,76402.0,-74.0,0
1885,18.850,76362.0,-76.0,0
1886,18.860,76084.0,-81.0,0
1887,18.870,76058.0,-92.0,0
1888,18.880,76087.0,-109.0,0
1889,18.890,75901.0,-131.0,0
1890,18.900,76053.0,-156.0,0
1891,18.910,75961.0,-180.0,0
1892,18.920,75924.0,-204.0,0
1893,18.930,75986.0,-226.0,0
1894,18.940,76000.0,-243.0,0
1895,18.950,75875.0,-257.0,0
1896,18.960,75946.0,-267.0,0
1897,18.970,75578.0,-276.0,0
1898,18.980,76902.0,-278.0,0
1899,18.990,75959.0,-264.0,0
1900,19.000,75641.0,-244.0,0
1901,19.010,76045.0,-230.0,0
1902,19.020,75836.0,-217.0,0
1903,19.030,75913.0,-204.0,0
1904,19.040,75986.0,-190.0,0
1905,19.050,75752.0,-177.0,0
1906,19.060,75947.0,-164.0,0
1907,19.070,75994.0,-150.0,0
1908,19.080,75837.0,-135.0,0
1909,19.090,75671.0,-121.0,0
1910,19.100,76029.0,-110.0,0
1911,19.110,75924.0,-96.0,0
1912,19.120,76011.0,-80.0,0
1913,19.130,76057.0,-61.0,0
1914,19.140,75223.0,-45.0,0
1915,19.150,75904.0,-38.0,0
1916,19.160,76033.0,-33.0,0
1917,19.170,76055.0,-22.0,0
1918,19.180,75405.0,-10.0,0
1919,19.190,76864.0,3.0,0
1920,19.200,76116.0,29.0,0
1921,19.210,75990.0,62.0,0
1922,19.220,75951.0,89.0,0
1923,19.230,75973.0,111.0,0
1924,19.240,75822.0,126.0,0
1925,19.250,76038.0,136.0,0
1926,19.260,75987.0,142.0,0
1927,19.270,75703.0,145.0,0
1928,19.280,75966.0,142.0,0
1929,19.290,76007.0,137.0,0
1930,19.300,75915.0,133.0,0
1931,19.310,76080.0,129.0,1
1932,19.320,75948.0,118.0,0
1933,19.330,75780.0,111.0,0
1934,19.340,75632.0,100.0,0
1935,19.350,75520.0,64.0,0
1936,19.360,77059.0,59.0,0
1937,19.370,76114.0,71.0,0
1938,19.380,76111.0,91.0,0
1939,19.390,75941.0,108.0,0
1940,19.400,76145.0,120.0,0
1941,19.410,76151.0,130.0,0
1942,19.420,76067.0,138.0,0
1943,19.430,76204.0,144.0,0
1944,19.440,76003.0,148.0,0
1945,19.450,75963.0,148.0,0
1946,19.460,76092.0,142.0,0
1947,19.470,76214.0,120.0,0
1948,19.480,76115.0,115.0,0
1949,19.490,76245.0,111.0,0
1950,19.500,76031.0,76.0,0
1951,19.510,75827.0,56.0,0
1952,19.520,77132.0,43.0,0
1953,19.530,76162.0,46.0,0
1954,19.540,75541.0,50.0,0
1955,19.550,76320.0,44.0,0
1956,19.560,76128.0,36.0,0
1957,19.570,76280.0,32.0,0
1958,19.580,75784.0,27.0,0
1959,19.590,76166.0,17.0,0
1960,19.600,76165.0,0.0,0
1961,19.610,75932.0,-2.0,0
1962,19.620,76019.0,-9.0,0
1963,19.630,76025.0,-18.0,0
1964,19.640,75817.0,-30.0,0
1965,19.650,75828.0,-66.0,0
1966,19.660,75656.0,-89.0,0
1967,19.670,75744.0,-114.0,0
1968,19.680,75746.0,-188.0,0
1969,19.690,75658.0,-193.0,0
1970,19.700,75590.0,-199.0,0
1971,19.710,75758.0,-204.0,0
1972,19.720,75624.0,-206.0,0
1973,19.730,75508.0,-208.0,0
1974,19.740,75658.0,-209.0,0
1975,19.750,75546.0,-209.0,0
1976,19.760,75662.0,-207.0,0
1977,19.770,75599.0,-189.0,0
1978,19.780,75582.0,-179.0,0
1979,19.790,75661.0,-166.0,0
1980,19.800,75194.0,-153.0,0
1981,19.810,75497.0,-144.0,0
1982,19.820,75304.0,-137.0,0
1983,19.830,76452.0,-124.0,0
1984,19.840,75784.0,-95.0,0
1985,19.850,75583.0,57.0,0
1986,19.860,75788.0,75.0,0
1987,19.870,75653.0,91.0,0
1988,19.880,75698.0,104.0,0
1989,19.890,75799.0,115.0,0
1990,19.900,75744.0,126.0,0
1991,19.910,75832.0,136.0,0
1992,19.920,75845.0,147.0,0
1993,19.930,75752.0,156.0,0
1994,19.940,75839.0,164.0,0
1995,19.950,75661.0,169.0,0
1996,19.960,75801.0,171.0,0
1997,19.970,75262.0,155.0,0
1998,19.980,76756.0,141.0,1
1999,19.990,75688.0,141.0,0
2000,20.000,75861.0,146.0,0
2001,20.010,76061.0,148.0,0
2002,20.020,75884.0,149.0,0
2003,20.030,75392.0,147.0,0
2004,20.040,75959.0,137.0,0
2005,20.050,75933.0,127.0,0
2006,20.060,76036.0,121.0,0
2007,20.070,76061.0,119.0,0
2008,20.080,75637.0,119.0,0
2009,20.090,76122.0,115.0,0
2010,20.100,76246.0,115.0,0
2011,20.110,76194.0,122.0,0
2012,20.120,76306.0,152.0,0
2013,20.130,75865.0,161.0,0
2014,20.140,77034.0,170.0,0
2015,20.150,77191.0,194.0,0
2016,20.160,76396.0,232.0,0
2017,20.170,76371.0,277.0,0
2018,20.180,75571.0,275.0,0
2019,20.190,76358.0,170.0,0
2020,20.200,76061.0,140.0,0
2021,20.210,76187.0,110.0,0
2022,20.220,76306.0,79.0,0
2023,20.230,76201.0,51.0,0
2024,20.240,76128.0,25.0,0
2025,20.250,76071.0,-1.0,0
2026,20.260,75750.0,-31.0,0
2027,20.270,75816.0,-67.0,0
2028,20.280,75712.0,-107.0,0
2029,20.290,75488.0,-152.0,0
2030,20.300,75066.0,-204.0,0
2031,20.310,76505.0,-256.0,0
2032,20.320,76484.0,-286.0,0
2033,20.330,75688.0,-294.0,0
2034,20.340,75558.0,-335.0,0
2035,20.350,75644.0,-345.0,0
2036,20.360,75622.0,-350.0,0
2037,20.370,75557.0,-352.0,0
2038,20.380,75571.0,-363.0,0
2039,20.390,75492.0,-360.0,0
2040,20.400,75571.0,-349.0,0
2041,20.410,75564.0,-333.0,0
2042,20.420,75672.0,-310.0,0
2043,20.430,75720.0,-280.0,0
2044,20.440,75689.0,-245.0,0
2045,20.450,74641.0,-214.0,0
2046,20.460,75077.0,-200.0,0
2047,20.470,75276.0,-197.0,0
2048,20.480,75865.0,-190.0,0
2049,20.490,75485.0,-172.0,0
2050,20.500,75516.0,-147.0,0
2051,20.510,75620.0,-119.0,0
2052,20.520,75706.0,-87.0,0
2053,20.530,75670.0,-52.0,0
2054,20.540,75656.0,-15.0,0
2055,20.550,75787.0,21.0,0
2056,20.560,75782.0,59.0,0
2057,20.570,75533.0,94.0,0
2058,20.580,75705.0,124.0,0
2059,20.590,75706.0,149.0,0
2060,20.600,75545.0,206.0,0
2061,20.610,75705.0,211.0,0
2062,20.620,75733.0,213.0,0
2063,20.630,75748.0,263.0,0
2064,20.640,75826.0,276.0,0
2065,20.650,75776.0,280.0,0
2066,20.660,75895.0,278.0,0
2067,20.670,75797.0,270.0,0
2068,20.680,75844.0,238.0,1
2069,20.690,75795.0,217.0,0
2070,20.700,75592.0,193.0,0
2071,20.710,75607.0,166.0,0
2072,20.720,75815.0,136.0,0
2073,20.730,75741.0,57.0,0
2074,20.740,75725.0,37.0,0
2075,20.750,75808.0,20.0,0
2076,20.760,75851.0,7.0,0
2077,20.770,74242.0,-12.0,0
2078,20.780,76603.0,-43.0,0
2079,20.790,76711.0,-55.0,0
2080,20.800,75738.0,-41.0,0
2081,20.810,75570.0,-25.0,0
2082,20.820,75222.0,-45.0,0
2083,20.830,75303.0,-70.0,0
2084,20.840,75121.0,-100.0,0
2085,20.850,74990.0,-136.0,0
2086,20.860,75046.0,-175.0,0
2087,20.870,75259.0,-214.0,0
2088,20.880,75237.0,-246.0,0
2089,20.890,75238.0,-270.0,0
2090,20.900,74983.0,-287.0,0
2091,20.910,75043.0,-302.0,0
2092,20.920,75145.0,-312.0,0
2093,20.930,75011.0,-318.0,0
2094,20.940,75079.0,-319.0,0
2095,20.950,75097.0,-315.0,0
2096,20.960,74570.0,-310.0,0
2097,20.970,75974.0,-300.0,0
2098,20.980,76047.0,-269.0,0
2099,20.990,74957.0,-219.0,0
2100,21.000,75248.0,-171.0,0
2101,21.010,75134.0,-131.0,0
2102,21.020,75126.0,-97.0,0
2103,21.030,75152.0,-69.0,0
2104,21.040,75054.0,-46.0,0
2105,21.050,75217.0,-28.0,0
2106,21.060,75332.0,30.0,0
2107,21.070,75179.0,44.0,0
2108,21.080,74721.0,53.0,0
2109,21.090,75157.0,54.0,0
2110,21.100,75361.0,55.0,0
2111,21.110,75217.0,60.0,0
2112,21.120,75309.0,69.0,0
2113,21.130,75300.0,80.0,0
2114,21.140,74728.0,88.0,0
2115,21.150,76153.0,97.0,0
2116,21.160,76243.0,122.0,0
2117,21.170,75073.0,162.0,0
2118,21.180,75225.0,193.0,0
2119,21.190,75415.0,212.0,0
2120,21.200,75282.0,223.0,0
2121,21.210,75435.0,229.0,0
2122,21.220,75336.0,231.0,0
2123,21.230,75445.0,229.0,0
2124,21.240,75473.0,226.0,0
2125,21.250,75319.0,221.0,0
2126,21.260,75079.0,211.0,1
2127,21.270,75482.0,195.0,0
2128,21.280,75245.0,178.0,0
2129,21.290,75602.0,163.0,0
2130,21.300,75309.0,150.0,0
2131,21.310,75399.0,139.0,0
2132,21.320,75528.0,128.0,0
2133,21.330,75520.0,121.0,0
2134,21.340,75388.0,116.0,0
2135,21.350,76465.0,88.0,0
2136,21.360,76516.0,93.0,0
2137,21.370,75479.0,119.0,0
2138,21.380,75654.0,143.0,0
2139,21.390,75575.0,160.0,0
2140,21.400,75498.0,169.0,0
2141,21.410,75471.0,169.0,0
2142,21.420,75555.0,162.0,0
2143,21.430,74731.0,145.0,0
2144,21.440,75585.0,116.0,0
2145,21.450,75610.0,85.0,0
2146,21.460,75489.0,60.0,0
2147,21.470,75675.0,41.0,0
2148,21.480,75587.0,27.0,0
2149,21.490,75476.0,16.0,0
2150,21.500,75683.0,7.0,0
2151,21.510,75663.0,1.0,0
2152,21.520,75587.0,0.0,0
2153,21.530,76591.0,-7.0,0
2154,21.540,76457.0,9.0,0
2155,21.550,75739.0,41.0,0
2156,21.560,75742.0,92.0,0
2157,21.570,75695.0,84.0,0
2158,21.580,74904.0,67.0,0
2159,21.590,75610.0,36.0,1
2160,21.600,75439.0,1.0,0
2161,21.610,75262.0,-34.0,0
2162,21.620,75306.0,-72.0,0
2163,21.630,75258.0,-111.0,0
2164,21.640,75282.0,-149.0,0
2165,21.650,75144.0,-184.0,0
2166,21.660,75248.0,-217.0,0
2167,21.670,74775.0,-249.0,0
2168,21.680,75080.0,-282.0,0
2169,21.690,74765.0,-314.0,0
2170,21.700,76091.0,-336.0,0
2171,21.710,75917.0,-332.0,0
2172,21.720,75125.0,-308.0,0
2173,21.730,75135.0,-283.0,0
2174,21.740,74972.0,-265.0,0
2175,21.750,74970.0,-254.0,0
2176,21.760,74895.0,-248.0,0
2177,21.770,74768.0,-249.0,0
2178,21.780,74839.0,-255.0,0
2179,21.790,74830.0,-262.0,0
2180,21.800,74667.0,-271.0,0
2181,21.810,74311.0,-284.0,0
2182,21.820,74223.0,-304.0,0
2183,21.830,74167.0,-333.0,0
2184,21.840,73745.0,-491.0,0
2185,21.850,73837.0,-529.0,0
2186,21.860,73595.0,-561.0,0
2187,21.870,72914.0,-592.0,0
2188,21.880,74776.0,-616.0,0
2189,21.890,74861.0,-608.0,0
2190,21.900,73847.0,-567.0,0
2191,21.910,73710.0,-517.0,0
2192,21.920,74299.0,-467.0,0
2193,21.930,74563.0,-407.0,0
2194,21.940,74915.0,-20.0,0
2195,21.950,74948.0,92.0,0
2196,21.960,75069.0,201.0,0
2197,21.970,75203.0,609.0,0
2198,21.980,75294.0,657.0,0
2199,21.990,75143.0,695.0,0
2200,22.000,75178.0,722.0,0
2201,22.010,74848.0,735.0,0
2202,22.020,76053.0,739.0,0
2203,22.030,76092.0,751.0,0
2204,22.040,75252.0,769.0,0
2205,22.050,75245.0,775.0,0
2206,22.060,75183.0,764.0,0
2207,22.070,75236.0,738.0,0
2208,22.080,75291.0,701.0,0
2209,22.090,75121.0,656.0,1
2210,22.100,75336.0,605.0,0
2211,22.110,74694.0,547.0,0
2212,22.120,75232.0,480.0,0
2213,22.130,75336.0,414.0,0
2214,22.140,75402.0,355.0,0
2215,22.150,75128.0,303.0,0
2216,22.160,75331.0,254.0,0
2217,22.170,75311.0,210.0,0
2218,22.180,75268.0,171.0,0
2219,22.190,75348.0,136.0,0
2220,22.200,75234.0,105.0,0
2221,22.210,75375.0,78.0,0
2222,22.220,75002.0,52.0,0
2223,22.230,76338.0,32.0,0
2224,22.240,76371.0,36.0,0
2225,22.250,75269.0,57.0,0
2226,22.260,75452.0,73.0,0
2227,22.270,75482.0,68.0,0
2228,22.280,75483.0,54.0,0
2229,22.290,75378.0,38.0,0
2230,22.300,75494.0,19.0,0
2231,22.310,75524.0,0.0,0
2232,22.320,75446.0,-16.0,0
2233,22.330,75412.0,-34.0,0
2234,22.340,75588.0,-52.0,0
2235,22.350,75615.0,-66.0,0
2236,22.360,75524.0,-76.0,0
2237,22.370,75558.0,-84.0,0
2238,22.380,75488.0,-92.0,0
2239,22.390,75278.0,-101.0,0
2240,22.400,75293.0,-115.0,0
2241,22.410,74887.0,-135.0,0
2242,22.420,75211.0,-163.0,0
2243,22.430,75089.0,-194.0,0
2244,22.440,75108.0,-225.0,0
2245,22.450,74808.0,-256.0,0
2246,22.460,75030.0,-288.0,0
2247,22.470,74960.0,-318.0,0
2248,22.480,74976.0,-344.0,0
2249,22.490,74925.0,-365.0,0
2250,22.500,75034.0,-380.0,0
2251,22.510,74538.0,-393.0,0
2252,22.520,75036.0,-404.0,0
2253,22.530,74834.0,-410.0,0
2254,22.540,75027.0,-410.0,0
2255,22.550,74929.0,-402.0,0
2256,22.560,74889.0,-388.0,0
2257,22.570,75013.0,-371.0,0
2258,22.580,74780.0,-350.0,0
2259,22.590,75056.0,-327.0,0
2260,22.600,74161.0,-307.0,0
2261,22.610,74831.0,-295.0,0
2262,22.620,75075.0,-201.0,0
2263,22.630,75095.0,-160.0,0
2264,22.640,75031.0,-118.0,0
2265,22.650,74980.0,15.0,0
2266,22.660,74917.0,37.0,0
2267,22.670,74988.0,55.0,0
2268,22.680,75015.0,70.0,0
2269,22.690,75117.0,117.0,0
2270,22.700,75082.0,126.0,0
2271,22.710,75112.0,134.0,0
2272,22.720,75140.0,141.0,0
2273,22.730,75025.0,148.0,0
2274,22.740,74592.0,149.0,0
2275,22.750,75943.0,148.0,0
2276,22.760,75082.0,156.0,0
2277,22.770,75150.0,168.0,0
2278,22.780,75120.0,175.0,0
2279,22.790,75155.0,179.0,0
2280,22.800,75236.0,181.0,0
2281,22.810,75049.0,180.0,0
2282,22.820,75196.0,177.0,0
2283,22.830,75178.0,172.0,0
2284,22.840,75031.0,165.0,1
2285,22.850,75252.0,128.0,0
2286,22.860,75225.0,120.0,0
2287,22.870,75165.0,113.0,0
2288,22.880,75336.0,86.0,0
2289,22.890,74268.0,76.0,0
2290,22.900,76258.0,62.0,0
2291,22.910,75390.0,61.0,0
2292,22.920,75395.0,71.0,0
2293,22.930,75170.0,79.0,0
2294,22.940,75424.0,76.0,0
2295,22.950,75468.0,75.0,0
2296,22.960,75312.0,76.0,0
2297,22.970,75382.0,77.0,0
2298,22.980,75484.0,83.0,0
2299,22.990,75430.0,85.0,0
2300,23.000,75460.0,86.0,0
2301,23.010,75466.0,86.0,0
2302,23.020,75519.0,86.0,0
2303,23.030,75469.0,85.0,0
2304,23.040,75244.0,81.0,0
2305,23.050,75322.0,71.0,0
2306,23.060,75267.0,57.0,0
2307,23.070,74867.0,-32.0,0
2308,23.080,74973.0,-60.0,0
2309,23.090,74999.0,-93.0,0
2310,23.100,74860.0,-126.0,0
2311,23.110,74987.0,-159.0,0
2312,23.120,75055.0,-188.0,0
2313,23.130,74516.0,-215.0,0
2314,23.140,74980.0,-243.0,0
2315,23.150,75022.0,-265.0,0
2316,23.160,74889.0,-279.0,0
2317,23.170,74957.0,-286.0,0
2318,23.180,74386.0,-292.0,0
2319,23.190,74891.0,-300.0,0
2320,23.200,74971.0,-304.0,0
2321,23.210,74909.0,-299.0,0
2322,23.220,74716.0,-289.0,0
2323,23.230,74970.0,-276.0,0
2324,23.240,74883.0,-259.0,0
2325,23.250,74986.0,-172.0,0
2326,23.260,75097.0,-125.0,0
2327,23.270,75004.0,-82.0,0
2328,23.280,75159.0,-44.0,0
2329,23.290,75091.0,-9.0,0
2330,23.300,75188.0,23.0,0
2331,23.310,75229.0,52.0,0
2332,23.320,75140.0,80.0,0
2333,23.330,75105.0,103.0,0
2334,23.340,75225.0,122.0,0
2335,23.350,75253.0,138.0,0
2336,23.360,75097.0,151.0,0
2337,23.370,75334.0,161.0,0
2338,23.380,75016.0,168.0,0
2339,23.390,75242.0,170.0,0
2340,23.400,75356.0,171.0,0
2341,23.410,75171.0,172.0,0
2342,23.420,75336.0,173.0,0
2343,23.430,75159.0,171.0,0
2344,23.440,74842.0,165.0,0
2345,23.450,76262.0,159.0,0
2346,23.460,75246.0,165.0,1
2347,23.470,75247.0,178.0,0
2348,23.480,75515.0,175.0,0
2349,23.490,75426.0,172.0,0
2350,23.500,75304.0,168.0,0
2351,23.510,75544.0,147.0,0
2352,23.520,75463.0,140.0,0
2353,23.530,75563.0,135.0,0
2354,23.540,75552.0,130.0,0
2355,23.550,75374.0,126.0,0
2356,23.560,75585.0,92.0,0
2357,23.570,74805.0,81.0,0
2358,23.580,75093.0,56.0,0
2359,23.590,76728.0,35.0,0
2360,23.600,75541.0,35.0,0
2361,23.610,75750.0,44.0,0
2362,23.620,75806.0,54.0,0
2363,23.630,75803.0,66.0,0
2364,23.640,75829.0,78.0,0
2365,23.650,75850.0,91.0,0
2366,23.660,75790.0,102.0,0
2367,23.670,75827.0,117.0,0
2368,23.680,75758.0,120.0,0
2369,23.690,75937.0,120.0,0
2370,23.700,75821.0,117.0,0
2371,23.710,75989.0,111.0,0
2372,23.720,75597.0,105.0,0
2373,23.730,76015.0,95.0,0
2374,23.740,75995.0,84.0,0
2375,23.750,75897.0,75.0,0
2376,23.760,75491.0,62.0,0
2377,23.770,75575.0,40.0,0
2378,23.780,76101.0,20.0,0
2379,23.790,75901.0,26.0,0
2380,23.800,76037.0,28.0,0
2381,23.810,75661.0,-4.0,0
2382,23.820,75527.0,-31.0,0
2383,23.830,75335.0,-67.0,0
2384,23.840,75456.0,-109.0,0
2385,23.850,75186.0,-155.0,0
2386,23.860,75281.0,-205.0,0
2387,23.870,75380.0,-334.0,0
2388,23.880,75270.0,-362.0,0
2389,23.890,75429.0,-384.0,0
2390,23.900,75306.0,-398.0,0
2391,23.910,75292.0,-405.0,0
2392,23.920,76276.0,-418.0,0
2393,23.930,76148.0,-399.0,0
2394,23.940,75381.0,-359.0,0
2395,23.950,75358.0,-317.0,0
2396,23.960,75315.0,-199.0,0
2397,23.970,75459.0,-177.0,0
2398,23.980,75429.0,-156.0,0
2399,23.990,75440.0,-135.0,0
2400,24.000,75503.0,-114.0,0
2401,24.010,75302.0,-94.0,0
2402,24.020,75537.0,-76.0,0
2403,24.030,75447.0,-59.0,0
2404,24.040,75315.0,-43.0,0
2405,24.050,74582.0,15.0,0
2406,24.060,76415.0,19.0,0
2407,24.070,76446.0,40.0,0
2408,24.080,75511.0,78.0,0
2409,24.090,75505.0,114.0,0
2410,24.100,75382.0,137.0,0
2411,24.110,75459.0,149.0,0
2412,24.120,75542.0,153.0,0
2413,24.130,75499.0,152.0,0
2414,24.140,75501.0,133.0,1
2415,24.150,75633.0,124.0,0
2416,24.160,75578.0,117.0,0
2417,24.170,75574.0,110.0,0
2418,24.180,75751.0,106.0,0
2419,24.190,75691.0,104.0,0
2420,24.200,75776.0,106.0,0
2421,24.210,75709.0,110.0,0
2422,24.220,75544.0,113.0,0
2423,24.230,75716.0,113.0,0
2424,24.240,75055.0,108.0,0
2425,24.250,75702.0,143.0,0
2426,24.260,75739.0,152.0,0
2427,24.270,75522.0,153.0,0
2428,24.280,75469.0,118.0,0
2429,24.290,75757.0,100.0,0
2430,24.300,75848.0,82.0,0
2431,24.310,75799.0,68.0,0
2432,24.320,75775.0,56.0,0
2433,24.330,75915.0,47.0,0
2434,24.340,75844.0,41.0,0
2435,24.350,75816.0,37.0,0
2436,24.360,75859.0,34.0,0
2437,24.370,75246.0,27.0,0
2438,24.380,76892.0,-7.0,0
2439,24.390,75931.0,22.0,0
2440,24.400,75780.0,51.0,0
2441,24.410,75908.0,87.0,0
2442,24.420,76000.0,87.0,0
2443,24.430,75856.0,84.0,0
2444,24.440,76035.0,76.0,0
2445,24.450,76041.0,68.0,0
2446,24.460,75747.0,58.0,0
2447,24.470,76060.0,45.0,0
2448,24.480,76042.0,33.0,0
2449,24.490,75964.0,22.0,0
2450,24.500,76024.0,12.0,0
2451,24.510,75968.0,3.0,0
2452,24.520,75849.0,-6.0,0
2453,24.530,75822.0,-18.0,0
2454,24.540,75516.0,-36.0,0
2455,24.550,75093.0,-65.0,0
2456,24.560,76347.0,-99.0,0
2457,24.570,76292.0,-119.0,0
2458,24.580,75445.0,-127.0,0
2459,24.590,75429.0,-139.0,0
2460,24.600,75304.0,-160.0,0
2461,24.610,75389.0,-187.0,0
2462,24.620,75425.0,-217.0,0
2463,24.630,75489.0,-244.0,0
2464,24.640,75460.0,-266.0,0
2465,24.650,75500.0,-300.0,0
2466,24.660,75475.0,-296.0,0
2467,24.670,75379.0,-288.0,0
2468,24.680,75625.0,-277.0,0
2469,24.690,75603.0,-260.0,0
2470,24.700,75478.0,-238.0,0
2471,24.710,75584.0,-214.0,0
2472,24.720,75732.0,-188.0,0
2473,24.730,75117.0,-161.0,0
2474,24.740,76565.0,-133.0,0
2475,24.750,76513.0,-86.0,0
2476,24.760,75661.0,-26.0,0
2477,24.770,75652.0,27.0,0
2478,24.780,75727.0,68.0,0
2479,24.790,75746.0,100.0,0
2480,24.800,75604.0,123.0,0
2481,24.810,74901.0,140.0,0
2482,24.820,75680.0,118.0,0
2483,24.830,75524.0,94.0,0
2484,24.840,75760.0,73.0,1
2485,24.850,75735.0,59.0,0
2486,24.860,75642.0,50.0,0
2487,24.870,75845.0,45.0,0
2488,24.880,75738.0,45.0,0
2489,24.890,75675.0,48.0,0
2490,24.900,75800.0,52.0,0
2491,24.910,75923.0,131.0,0
2492,24.920,75968.0,171.0,0
2493,24.930,75825.0,199.0,0
2494,24.940,75829.0,212.0,0
2495,24.950,76041.0,200.0,0
2496,24.960,75926.0,188.0,0
2497,24.970,75822.0,174.0,0
2498,24.980,76029.0,159.0,0
2499,24.990,75862.0,143.0,0
2500,25.000,75895.0,127.0,0
2501,25.010,75932.0,110.0,0
2502,25.020,75855.0,93.0,0
2503,25.030,76065.0,78.0,0
2504,25.040,75985.0,65.0,0
2505,25.050,76076.0,56.0,0
2506,25.060,76121.0,50.0,0
2507,25.070,75569.0,44.0,0
2508,25.080,76915.0,40.0,0
2509,25.090,77110.0,54.0,0
2510,25.100,76004.0,85.0,0
2511,25.110,76185.0,112.0,0
2512,25.120,76061.0,127.0,0
2513,25.130,76150.0,113.0,0
2514,25.140,76093.0,97.0,0
2515,25.150,76142.0,80.0,1
2516,25.160,76007.0,2.0,0
2517,25.170,76112.0,-16.0,0
2518,25.180,76007.0,-34.0,0
2519,25.190,75658.0,-116.0,0
2520,25.200,75090.0,-151.0,0
2521,25.210,76087.0,-191.0,0
2522,25.220,76067.0,-221.0,0
2523,25.230,75105.0,-243.0,0
2524,25.240,74775.0,-368.0,0
2525,25.250,74115.0,-682.0,0
2526,25.260,74005.0,-738.0,0
2527,25.270,74138.0,-787.0,0
2528,25.280,73790.0,-827.0,0
2529,25.290,74426.0,-877.0,0
2530,25.300,74702.0,-841.0,0
2531,25.310,74703.0,-778.0,0
2532,25.320,74605.0,-695.0,0
2533,25.330,76135.0,-587.0,0
2534,25.340,76003.0,-444.0,0
2535,25.350,75255.0,-277.0,0
2536,25.360,74387.0,-118.0,0
2537,25.370,75339.0,17.0,0
2538,25.380,75279.0,138.0,0
2539,25.390,75285.0,249.0,0
2540,25.400,75344.0,349.0,0
2541,25.410,75131.0,435.0,0
2542,25.420,75401.0,505.0,0
2543,25.430,75378.0,563.0,0
2544,25.440,75151.0,608.0,0
2545,25.450,75184.0,638.0,0
2546,25.460,75224.0,653.0,0
2547,25.470,75135.0,656.0,0
2548,25.480,75305.0,649.0,0
2549,25.490,75028.0,634.0,0
2550,25.500,75332.0,612.0,0
2551,25.510,75392.0,587.0,1
2552,25.520,75228.0,562.0,0
2553,25.530,74874.0,532.0,0
2554,25.540,76252.0,492.0,0
2555,25.550,75445.0,497.0,0
2556,25.560,75349.0,500.0,0
2557,25.570,75396.0,491.0,0
2558,25.580,75399.0,473.0,0
2559,25.590,75344.0,449.0,0
2560,25.600,75543.0,419.0,0
2561,25.610,75563.0,390.0,0
2562,25.620,75314.0,360.0,0
2563,25.630,75506.0,328.0,0
2564,25.640,75502.0,295.0,0
2565,25.650,75357.0,264.0,0
2566,25.660,75542.0,232.0,0
2567,25.670,75484.0,202.0,0
2568,25.680,75411.0,173.0,0
2569,25.690,75483.0,146.0,0
2570,25.700,75506.0,120.0,0
2571,25.710,75133.0,57.0,0
2572,25.720,76469.0,40.0,0
2573,25.730,76050.0,40.0,0
2574,25.740,75500.0,48.0,0
2575,25.750,75492.0,37.0,0
2576,25.760,75518.0,22.0,0
2577,25.770,75677.0,6.0,0
2578,25.780,75520.0,-7.0,0
2579,25.790,75516.0,-22.0,0
2580,25.800,75644.0,-36.0,0
2581,25.810,75614.0,-48.0,0
2582,25.820,75583.0,-58.0,0
2583,25.830,75604.0,-66.0,0
2584,25.840,75490.0,-74.0,0
2585,25.850,75490.0,-84.0,0
2586,25.860,75492.0,-94.0,0
2587,25.870,75248.0,-107.0,0
2588,25.880,75337.0,-123.0,0
2589,25.890,74698.0,-147.0,0
2590,25.900,74893.0,-250.0,0
2591,25.910,74859.0,-280.0,0
2592,25.920,74774.0,-312.0,0
2593,25.930,74935.0,-343.0,0
2594,25.940,74301.0,-373.0,0
2595,25.950,74782.0,-404.0,0
2596,25.960,74866.0,-431.0,0
2597,25.970,74800.0,-447.0,0
2598,25.980,74845.0,-453.0,0
2599,25.990,74598.0,-452.0,0
2600,26.000,74677.0,-447.0,0
2601,26.010,74895.0,-437.0,0
2602,26.020,74851.0,-418.0,0
2603,26.030,74061.0,-398.0,0
2604,26.040,74845.0,-382.0,0
2605,26.050,74888.0,-361.0,0
2606,26.060,74808.0,-332.0,0
2607,26.070,74592.0,-298.0,0
2608,26.080,75770.0,-257.0,0
2609,26.090,75023.0,-200.0,0
2610,26.100,74988.0,-137.0,0
2611,26.110,74885.0,-79.0,0
2612,26.120,74175.0,-33.0,0
2613,26.130,74978.0,23.0,0
2614,26.140,75067.0,52.0,0
2615,26.150,74979.0,81.0,0
2616,26.160,75007.0,109.0,0
2617,26.170,75000.0,197.0,0
2618,26.180,74932.0,211.0,0
2619,26.190,75066.0,222.0,0
2620,26.200,74935.0,229.0,0
2621,26.210,75103.0,233.0,0
2622,26.220,75131.0,236.0,0
2623,26.230,74982.0,238.0,0
2624,26.240,74728.0,236.0,0
2625,26.250,76112.0,235.0,0
2626,26.260,75199.0,247.0,0
2627,26.270,74987.0,244.0,1
2628,26.280,75205.0,237.0,0
2629,26.290,75388.0,188.0,0
2630,26.300,75136.0,181.0,0
2631,26.310,75223.0,173.0,0
2632,26.320,75290.0,162.0,0
2633,26.330,75347.0,153.0,0
2634,26.340,75335.0,144.0,0
2635,26.350,75247.0,136.0,0
2636,26.360,74945.0,125.0,0
2637,26.370,76332.0,116.0,0
2638,26.380,75177.0,119.0,0
2639,26.390,75439.0,124.0,0
2640,26.400,75449.0,126.0,0
2641,26.410,75277.0,124.0,0
2642,26.420,75511.0,120.0,0
2643,26.430,75497.0,86.0,0
2644,26.440,75308.0,76.0,0
2645,26.450,75496.0,64.0,0
2646,26.460,75564.0,54.0,0
2647,26.470,75490.0,46.0,0
2648,26.480,75268.0,38.0,0
2649,26.490,75297.0,4.0,0
2650,26.500,75396.0,-8.0,0
2651,26.510,75306.0,-22.0,0
2652,26.520,74526.0,-44.0,0
2653,26.530,75908.0,-71.0,0
2654,26.540,74914.0,-94.0,0
2655,26.550,74722.0,-118.0,0
2656,26.560,74874.0,-152.0,0
2657,26.570,74638.0,-190.0,0
2658,26.580,74746.0,-232.0,0
2659,26.590,74683.0,-308.0,0
2660,26.600,74809.0,-339.0,0
2661,26.610,74844.0,-362.0,0
2662,26.620,74753.0,-377.0,0
2663,26.630,74942.0,-384.0,0
2664,26.640,74884.0,-382.0,0
2665,26.650,74914.0,-371.0,0
2666,26.660,74919.0,-354.0,0
2667,26.670,74732.0,-333.0,0
2668,26.680,74886.0,-310.0,0
2669,26.690,74870.0,-286.0,0
2670,26.700,74782.0,-260.0,0
2671,26.710,74872.0,-234.0,0
2672,26.720,74518.0,-209.0,0
2673,26.730,75826.0,-182.0,0
2674,26.740,74921.0,-142.0,0
2675,26.750,74640.0,-101.0,0
2676,26.760,74705.0,-71.0,0
2677,26.770,74847.0,-49.0,0
2678,26.780,74641.0,-33.0,0
2679,26.790,74857.0,-22.0,0
2680,26.800,74846.0,-12.0,0
2681,26.810,74795.0,-3.0,0
2682,26.820,74287.0,1.0,0
2683,26.830,74745.0,-1.0,0
2684,26.840,74852.0,-6.0,0
2685,26.850,75017.0,-4.0,0
2686,26.860,74769.0,3.0,0
2687,26.870,74880.0,13.0,0
2688,26.880,74876.0,25.0,0
2689,26.890,74821.0,38.0,0
2690,26.900,75013.0,51.0,0
2691,26.910,74429.0,94.0,0
2692,26.920,75761.0,101.0,0
2693,26.930,75076.0,174.0,0
2694,26.940,74998.0,184.0,0
2695,26.950,74127.0,186.0,0
2696,26.960,75189.0,174.0,0
2697,26.970,75369.0,165.0,0
2698,26.980,75294.0,167.0,0
2699,26.990,75335.0,177.0,1
2700,27.000,75187.0,191.0,0
2701,27.010,75428.0,206.0,0
2702,27.020,75552.0,223.0,0
2703,27.030,75429.0,245.0,0
2704,27.040,75568.0,303.0,0
2705,27.050,75545.0,319.0,0
2706,27.060,75127.0,327.0,0
2707,27.070,76309.0,330.0,0
2708,27.080,76426.0,345.0,0
2709,27.090,75672.0,370.0,0
2710,27.100,75687.0,389.0,0
2711,27.110,75523.0,395.0,0
2712,27.120,75748.0,388.0,0
2713,27.130,75615.0,373.0,0
2714,27.140,75583.0,351.0,0
2715,27.150,75665.0,321.0,0
2716,27.160,75641.0,288.0,0
2717,27.170,75716.0,253.0,0
2718,27.180,75673.0,217.0,0
2719,27.190,75695.0,182.0,0
2720,27.200,75770.0,148.0,0
2721,27.210,75576.0,116.0,0
2722,27.220,75667.0,83.0,0
2723,27.230,75588.0,23.0,0
2724,27.240,75764.0,-3.0,0
2725,27.250,75771.0,-27.0,0
2726,27.260,74868.0,-53.0,0
2727,27.270,76633.0,-80.0,0
2728,27.280,76679.0,-87.0,0
2729,27.290,75602.0,-74.0,0
2730,27.300,75733.0,-63.0,0
2731,27.310,75566.0,-61.0,0
2732,27.320,75442.0,-69.0,0
2733,27.330,75436.0,-87.0,0
2734,27.340,75184.0,-114.0,0
2735,27.350,75214.0,-150.0,0
2736,27.360,75030.0,-193.0,0
2737,27.370,74896.0,-243.0,0
2738,27.380,74079.0,-304.0,0
2739,27.390,74809.0,-376.0,0
2740,27.400,74928.0,-447.0,0
2741,27.410,75030.0,-503.0,0
2742,27.420,74773.0,-545.0,0
2743,27.430,74969.0,-574.0,0
2744,27.440,75071.0,-590.0,0
2745,27.450,74855.0,-592.0,0
2746,27.460,74911.0,-584.0,0
2747,27.470,74116.0,-575.0,0
2748,27.480,75691.0,-563.0,0
2749,27.490,75844.0,-528.0,0
2750,27.500,74889.0,-471.0,0
2751,27.510,74139.0,-417.0,0
2752,27.520,74961.0,-380.0,0
2753,27.530,74954.0,-347.0,0
2754,27.540,75059.0,-311.0,0
2755,27.550,75105.0,-271.0,0
2756,27.560,75121.0,-228.0,0
2757,27.570,75079.0,-182.0,0
2758,27.580,75007.0,-138.0,0
2759,27.590,75080.0,-96.0,0
2760,27.600,75020.0,-58.0,0
2761,27.610,74938.0,-24.0,0
2762,27.620,74986.0,4.0,0
2763,27.630,75104.0,28.0,0
2764,27.640,74729.0,49.0,0
2765,27.650,74958.0,63.0,0
2766,27.660,74779.0,71.0,0
2767,27.670,74831.0,74.0,0
2768,27.680,74164.0,68.0,0
2769,27.690,75661.0,59.0,0
2770,27.700,75709.0,65.0,0
2771,27.710,74966.0,89.0,0
2772,27.720,74908.0,112.0,0
2773,27.730,74781.0,136.0,0
2774,27.740,74849.0,137.0,0
2775,27.750,74788.0,133.0,0
2776,27.760,74581.0,123.0,0
2777,27.770,74560.0,106.0,0
2778,27.780,74530.0,82.0,0
2779,27.790,74325.0,53.0,0
2780,27.800,74365.0,20.0,0
2781,27.810,74202.0,-17.0,0
2782,27.820,74210.0,-56.0,0
2783,27.830,74375.0,-95.0,0
2784,27.840,74311.0,-176.0,0
2785,27.850,74286.0,-191.0,0
2786,27.860,73575.0,-205.0,0
2787,27.870,75232.0,-214.0,0
2788,27.880,75146.0,-200.0,0
2789,27.890,74428.0,-163.0,0
2790,27.900,74506.0,-122.0,0
2791,27.910,74363.0,-85.0,0
2792,27.920,74617.0,-50.0,0
2793,27.930,74469.0,-17.0,0
2794,27.940,74694.0,86.0,0
2795,27.950,74655.0,109.0,0
2796,27.960,74603.0,133.0,0
2797,27.970,74801.0,156.0,0
2798,27.980,74797.0,179.0,0
2799,27.990,74803.0,203.0,0
2800,28.000,74966.0,228.0,0
2801,28.010,74941.0,253.0,0
2802,28.020,75429.0,346.0,0
2803,28.030,74448.0,367.0,0
2804,28.040,74454.0,371.0,0
2805,28.050,74184.0,352.0,0
2806,28.060,74333.0,314.0,0
2807,28.070,74370.0,264.0,0
2808,28.080,74128.0,207.0,1
2809,28.090,74313.0,145.0,0
2810,28.100,74310.0,84.0,0
2811,28.110,74444.0,28.0,0
2812,28.120,74431.0,-18.0,0
2813,28.130,74261.0,-58.0,0
2814,28.140,74445.0,-117.0,0
2815,28.150,74233.0,-136.0,0
2816,28.160,74433.0,-150.0,0
2817,28.170,74239.0,-166.0,0
2818,28.180,73933.0,-169.0,0
2819,28.190,75274.0,-167.0,0
2820,28.200,75332.0,-142.0,0
2821,28.210,74338.0,-99.0,0
2822,28.220,74611.0,-56.0,0
2823,28.230,74398.0,34.0,0
2824,28.240,74558.0,50.0,0
2825,28.250,74515.0,63.0,0
2826,28.260,74570.0,67.0,0
2827,28.270,74474.0,65.0,0
2828,28.280,74310.0,61.0,0
2829,28.290,74260.0,53.0,0
2830,28.300,74474.0,42.0,0
2831,28.310,74489.0,32.0,0
2832,28.320,74495.0,25.0,0
2833,28.330,74567.0,21.0,0
2834,28.340,74539.0,21.0,0
2835,28.350,74120.0,21.0,0
2836,28.360,75376.0,23.0,0
2837,28.370,75563.0,43.0,0
2838,28.380,74601.0,81.0,0
2839,28.390,74611.0,116.0,0
2840,28.400,74714.0,139.0,0
2841,28.410,74620.0,155.0,0
2842,28.420,73982.0,158.0,0
2843,28.430,74452.0,145.0,0
2844,28.440,74702.0,125.0,0
2845,28.450,74764.0,109.0,0
2846,28.460,74602.0,96.0,1
2847,28.470,74683.0,86.0,0
2848,28.480,74656.0,77.0,0
2849,28.490,74523.0,68.0,0
2850,28.500,74526.0,57.0,0
2851,28.510,74463.0,44.0,0
2852,28.520,74609.0,30.0,0
2853,28.530,74584.0,16.0,0
2854,28.540,74632.0,6.0,0
2855,28.550,74562.0,-2.0,0
2856,28.560,74148.0,-12.0,0
2857,28.570,75524.0,-20.0,0
2858,28.580,75417.0,-8.0,0
2859,28.590,74722.0,18.0,0
2860,28.600,74403.0,41.0,0
2861,28.610,74559.0,52.0,0
2862,28.620,74566.0,29.0,0
2863,28.630,74430.0,16.0,0
2864,28.640,74643.0,0.0,0
2865,28.650,74686.0,-60.0,0
2866,28.660,74655.0,-64.0,0
2867,28.670,74460.0,-67.0,0
2868,28.680,75515.0,-70.0,0
2869,28.690,75329.0,-50.0,0
2870,28.700,74655.0,-17.0,0
2871,28.710,74614.0,10.0,0
2872,28.720,74347.0,26.0,0
2873,28.730,74235.0,16.0,0
2874,28.740,73923.0,-7.0,0
2875,28.750,73903.0,-44.0,0
2876,28.760,73693.0,-93.0,0
2877,28.770,73481.0,-152.0,0
2878,28.780,72286.0,-386.0,0
2879,28.790,72531.0,-488.0,0
2880,28.800,72557.0,-595.0,0
2881,28.810,72329.0,-697.0,0
2882,28.820,72341.0,-790.0,0
2883,28.830,72585.0,-870.0,0
2884,28.840,72777.0,-927.0,0
2885,28.850,72410.0,-960.0,0
2886,28.860,74086.0,-961.0,0
2887,28.870,74178.0,-914.0,0
2888,28.880,73494.0,-821.0,0
2889,28.890,73658.0,-706.0,0
2890,28.900,73779.0,-580.0,0
2891,28.910,73576.0,-207.0,0
2892,28.920,73722.0,-94.0,0
2893,28.930,73772.0,12.0,0
2894,28.940,73540.0,111.0,0
2895,28.950,73667.0,338.0,0
2896,28.960,73726.0,392.0,0
2897,28.970,73779.0,436.0,0
2898,28.980,73663.0,471.0,0
2899,28.990,73694.0,496.0,0
2900,29.000,73551.0,511.0,0
2901,29.010,73729.0,516.0,0
2902,29.020,73174.0,511.0,0
2903,29.030,74601.0,502.0,0
2904,29.040,74439.0,505.0,0
2905,29.050,73339.0,515.0,1
2906,29.060,73533.0,483.0,0
2907,29.070,73666.0,456.0,0
2908,29.080,73640.0,424.0,0
2909,29.090,73661.0,391.0,0
2910,29.100,73766.0,359.0,0
2911,29.110,73618.0,328.0,0
2912,29.120,73807.0,299.0,0
2913,29.130,73592.0,271.0,0
2914,29.140,73742.0,245.0,0
2915,29.150,73865.0,223.0,0
2916,29.160,73845.0,205.0,0
2917,29.170,73921.0,183.0,0
2918,29.180,73753.0,176.0,0
2919,29.190,73890.0,169.0,0
2920,29.200,73469.0,161.0,0
2921,29.210,73798.0,203.0,0
2922,29.220,73979.0,207.0,0
2923,29.230,73936.0,205.0,0
2924,29.240,74093.0,177.0,0
2925,29.250,74141.0,167.0,0
2926,29.260,73958.0,156.0,0
2927,29.270,74111.0,143.0,0
2928,29.280,74028.0,129.0,0
2929,29.290,74090.0,115.0,0
2930,29.300,74079.0,100.0,0
2931,29.310,73936.0,85.0,0
2932,29.320,74105.0,68.0,0
2933,29.330,74083.0,52.0,0
2934,29.340,74039.0,-2.0,0
2935,29.350,74122.0,-3.0,0
2936,29.360,73994.0,-6.0,0
2937,29.370,73486.0,-17.0,0
2938,29.380,74082.0,-37.0,0
2939,29.390,74104.0,-76.0,0
2940,29.400,74045.0,-90.0,0
2941,29.410,73947.0,-100.0,0
2942,29.420,74126.0,-108.0,0
2943,29.430,73978.0,-114.0,0
2944,29.440,74107.0,-117.0,0
2945,29.450,74150.0,-117.0,0
2946,29.460,73996.0,-114.0,0
2947,29.470,74148.0,-111.0,0
2948,29.480,74102.0,-105.0,0
2949,29.490,73472.0,-86.0,0
2950,29.500,74754.0,-88.0,0
2951,29.510,73542.0,-86.0,0
2952,29.520,73462.0,-127.0,0
2953,29.530,73503.0,-156.0,0
2954,29.540,73251.0,-190.0,0
2955,29.550,73349.0,-228.0,0
2956,29.560,73459.0,-265.0,0
2957,29.570,73389.0,-298.0,0
2958,29.580,73527.0,-323.0,0
2959,29.590,73485.0,-340.0,0
2960,29.600,73512.0,-348.0,0
2961,29.610,73645.0,-348.0,0
2962,29.620,73594.0,-338.0,0
2963,29.630,73541.0,-320.0,0
2964,29.640,73598.0,-298.0,0
2965,29.650,73503.0,-273.0,0
2966,29.660,73536.0,-247.0,0
2967,29.670,73703.0,-218.0,0
2968,29.680,73080.0,-191.0,0
2969,29.690,74558.0,-161.0,0
2970,29.700,73719.0,-120.0,0
2971,29.710,73558.0,-74.0,0
2972,29.720,73758.0,-35.0,0
2973,29.730,73633.0,0.0,0
2974,29.740,73610.0,29.0,0
2975,29.750,73771.0,54.0,0
2976,29.760,73677.0,76.0,0
2977,29.770,73384.0,92.0,0
2978,29.780,73644.0,101.0,0
2979,29.790,73527.0,104.0,0
2980,29.800,73722.0,106.0,0
2981,29.810,73679.0,107.0,0
2982,29.820,73671.0,110.0,0
2983,29.830,73784.0,113.0,0
2984,29.840,73479.0,116.0,0
2985,29.850,73571.0,115.0,0
2986,29.860,73415.0,109.0,0
2987,29.870,73683.0,101.0,0
2988,29.880,73754.0,89.0,0
2989,29.890,73535.0,100.0,0
2990,29.900,73793.0,107.0,0
2991,29.910,73795.0,113.0,0
2992,29.920,73640.0,131.0,0
2993,29.930,73665.0,131.0,0
2994,29.940,73559.0,126.0,0
2995,29.950,73590.0,117.0,0
2996,29.960,73663.0,105.0,1
2997,29.970,73707.0,59.0,0
2998,29.980,73705.0,34.0,0
2999,29.990,73557.0,17.0,0
3000,30.000,73539.0,-10.0,0
3001,30.010,73285.0,-19.0,0
3002,30.020,74427.0,-23.0,0
3003,30.030,73699.0,-14.0,0
3004,30.040,73623.0,0.0,0
3005,30.050,73443.0,11.0,0
3006,30.060,73585.0,15.0,0
3007,30.070,73585.0,16.0,0
3008,30.080,73411.0,15.0,0
3009,30.090,73524.0,9.0,0
3010,30.100,73571.0,2.0,0
3011,30.110,73515.0,-3.0,0
3012,30.120,73548.0,-9.0,0
3013,30.130,73495.0,-15.0,0
3014,30.140,73479.0,-21.0,0
3015,30.150,73444.0,-27.0,0
3016,30.160,73507.0,-33.0,0
3017,30.170,73319.0,-40.0,0
3018,30.180,73214.0,-49.0,0
3019,30.190,73204.0,-85.0,0
3020,30.200,72890.0,-99.0,0
3021,30.210,74044.0,-111.0,0
3022,30.220,73064.0,-114.0,0
3023,30.230,73069.0,-115.0,0
3024,30.240,72806.0,-162.0,0
3025,30.250,72554.0,-190.0,0
3026,30.260,72666.0,-222.0,0
3027,30.270,72816.0,-252.0,0
3028,30.280,72782.0,-308.0,0
3029,30.290,71980.0,-317.0,0
3030,30.300,72776.0,-329.0,0
3031,30.310,72757.0,-319.0,0
3032,30.320,72555.0,-299.0,0
3033,30.330,72718.0,-275.0,0
3034,30.340,72738.0,-247.0,0
3035,30.350,72172.0,-219.0,0
3036,30.360,73741.0,-188.0,0
3037,30.370,72714.0,-143.0,0
3038,30.380,72902.0,-92.0,0
3039,30.390,72896.0,-42.0,0
3040,30.400,72947.0,182.0,0
3041,30.410,72692.0,206.0,0
3042,30.420,72987.0,223.0,0
3043,30.430,73167.0,238.0,0
3044,30.440,73107.0,255.0,0
3045,30.450,73095.0,273.0,0
3046,30.460,72866.0,287.0,0
3047,30.470,73205.0,297.0,0
3048,30.480,73089.0,305.0,0
3049,30.490,73245.0,313.0,0
3050,30.500,72134.0,313.0,0
3051,30.510,73911.0,304.0,0
3052,30.520,74062.0,309.0,0
3053,30.530,73074.0,329.0,0
3054,30.540,73241.0,347.0,0
3055,30.550,73023.0,355.0,0
3056,30.560,73194.0,336.0,0
3057,30.570,72527.0,318.0,1
3058,30.580,73321.0,289.0,0
3059,30.590,73090.0,257.0,0
3060,30.600,73125.0,150.0,0
3061,30.610,73349.0,132.0,0
3062,30.620,73371.0,118.0,0
3063,30.630,73335.0,110.0,0
3064,30.640,73415.0,99.0,0
3065,30.650,72722.0,91.0,0
3066,30.660,74138.0,83.0,0
3067,30.670,74339.0,92.0,0
3068,30.680,73469.0,118.0,0
3069,30.690,73501.0,144.0,0
3070,30.700,73548.0,162.0,0
3071,30.710,73354.0,172.0,0
3072,30.720,73502.0,173.0,0
3073,30.730,73555.0,168.0,0
3074,30.740,73307.0,159.0,0
3075,30.750,73548.0,87.0,0
3076,30.760,73328.0,66.0,0
3077,30.770,73258.0,42.0,0
3078,30.780,73316.0,15.0,0
3079,30.790,73465.0,-91.0,0
3080,30.800,72970.0,-118.0,0
3081,30.810,74469.0,-136.0,0
3082,30.820,74333.0,-128.0,0
3083,30.830,72865.0,-105.0,0
3084,30.840,73392.0,-92.0,0
3085,30.850,73476.0,-88.0,0
3086,30.860,73564.0,-85.0,0
3087,30.870,72881.0,-87.0,0
3088,30.880,73630.0,-95.0,0
3089,30.890,73613.0,-102.0,0
3090,30.900,73255.0,-105.0,0
3091,30.910,73298.0,-109.0,0
3092,30.920,73195.0,-118.0,0
3093,30.930,73093.0,-131.0,0
3094,30.940,73128.0,-147.0,0
3095,30.950,72860.0,-239.0,0
3096,30.960,72964.0,-261.0,0
3097,30.970,72521.0,-284.0,0
3098,30.980,72101.0,-314.0,0
3099,30.990,73852.0,-342.0,0
3100,31.000,72135.0,-324.0,0
3101,31.010,72905.0,-309.0,0
3102,31.020,72999.0,-300.0,0
3103,31.030,72923.0,-286.0,0
3104,31.040,72887.0,-270.0,0
3105,31.050,72866.0,-207.0,0
3106,31.060,73059.0,-183.0,0
3107,31.070,72965.0,-158.0,0
3108,31.080,72854.0,-134.0,0
3109,31.090,73099.0,-111.0,0
3110,31.100,73118.0,-86.0,0
3111,31.110,72926.0,-60.0,0
3112,31.120,73130.0,-35.0,0
3113,31.130,73117.0,-10.0,0
3114,31.140,72292.0,44.0,0
3115,31.150,73741.0,50.0,0
3116,31.160,73911.0,69.0,0
3117,31.170,72978.0,102.0,0
3118,31.180,72901.0,131.0,0
3119,31.190,72979.0,148.0,0
3120,31.200,72885.0,155.0,0
3121,31.210,72969.0,154.0,0
3122,31.220,72866.0,147.0,0
3123,31.230,72878.0,135.0,0
3124,31.240,72989.0,121.0,1
3125,31.250,72811.0,71.0,0
3126,31.260,72930.0,59.0,0
3127,31.270,72903.0,48.0,0
3128,31.280,72007.0,-14.0,0
3129,31.290,73562.0,-31.0,0
3130,31.300,73760.0,-30.0,0
3131,31.310,72829.0,-10.0,0
3132,31.320,72768.0,11.0,0
3133,31.330,72812.0,24.0,0
3134,31.340,72845.0,31.0,0
3135,31.350,72872.0,34.0,0
3136,31.360,72670.0,35.0,0
3137,31.370,72618.0,30.0,0
3138,31.380,72874.0,20.0,0
3139,31.390,72770.0,12.0,0
3140,31.400,72731.0,4.0,0
3141,31.410,72788.0,-2.0,0
3142,31.420,72635.0,-10.0,0
3143,31.430,72698.0,-18.0,0
3144,31.440,72811.0,-25.0,0
3145,31.450,72819.0,-29.0,0
3146,31.460,72807.0,-29.0,0
3147,31.470,72717.0,-27.0,0
3148,31.480,72519.0,-26.0,0
3149,31.490,72203.0,-32.0,0
3150,31.500,73253.0,-40.0,0
3151,31.510,73373.0,-35.0,0
3152,31.520,72593.0,-17.0,0
3153,31.530,72432.0,-2.0,0
3154,31.540,72537.0,1.0,0
3155,31.550,72470.0,-1.0,0
3156,31.560,72431.0,-9.0,0
3157,31.570,72591.0,-21.0,0
3158,31.580,72424.0,-33.0,0
3159,31.590,72554.0,-44.0,0
3160,31.600,72471.0,-54.0,0
3161,31.610,72372.0,-64.0,0
3162,31.620,72414.0,-74.0,0
3163,31.630,72546.0,-82.0,0
3164,31.640,72284.0,-87.0,0
3165,31.650,72446.0,-92.0,0
3166,31.660,72350.0,-96.0,0
3167,31.670,72133.0,-100.0,0
3168,31.680,71993.0,-108.0,0
3169,31.690,71981.0,-122.0,0
3170,31.700,71589.0,-143.0,0
3171,31.710,72892.0,-162.0,0
3172,31.720,72837.0,-164.0,0
3173,31.730,72071.0,-147.0,0
3174,31.740,72020.0,-131.0,0
3175,31.750,71833.0,-123.0,0
3176,31.760,71934.0,-122.0,0
3177,31.770,71831.0,-127.0,0
3178,31.780,71778.0,-135.0,0
3179,31.790,71862.0,-145.0,0
3180,31.800,71763.0,-155.0,0
3181,31.810,71502.0,-166.0,0
3182,31.820,71717.0,-180.0,0
3183,31.830,71736.0,-192.0,0
3184,31.840,71852.0,-198.0,0
3185,31.850,71840.0,-196.0,0
3186,31.860,71762.0,-188.0,0
3187,31.870,71858.0,-176.0,0
3188,31.880,71978.0,-100.0,0
3189,31.890,71517.0,-69.0,0
3190,31.900,72958.0,-35.0,0
3191,31.910,72929.0,17.0,0
3192,31.920,71932.0,84.0,0
3193,31.930,72168.0,145.0,0
3194,31.940,72154.0,195.0,0
3195,31.950,72060.0,234.0,0
3196,31.960,72212.0,264.0,0
3197,31.970,72061.0,287.0,0
3198,31.980,72258.0,302.0,0
3199,31.990,72176.0,312.0,0
3200,32.000,72165.0,318.0,0
3201,32.010,72263.0,320.0,0
3202,32.020,72220.0,320.0,0
3203,32.030,72041.0,316.0,0
3204,32.040,72191.0,306.0,0
3205,32.050,72172.0,294.0,1
3206,32.060,71954.0,279.0,0
3207,32.070,72326.0,260.0,0
3208,32.080,72145.0,243.0,0
3209,32.090,72271.0,228.0,0
3210,32.100,71918.0,212.0,0
3211,32.110,72940.0,200.0,0
3212,32.120,73143.0,203.0,0
3213,32.130,72285.0,222.0,0
3214,32.140,72193.0,237.0,0
3215,32.150,71822.0,238.0,0
3216,32.160,72100.0,224.0,0
3217,32.170,72229.0,202.0,0
3218,32.180,72192.0,178.0,0
3219,32.190,71968.0,152.0,0
3220,32.200,72009.0,122.0,0
3221,32.210,72020.0,89.0,0
3222,32.220,71812.0,54.0,0
3223,32.230,71651.0,16.0,0
3224,32.240,71567.0,-27.0,0
3225,32.250,71452.0,-76.0,0
3226,32.260,71255.0,-255.0,0
3227,32.270,71085.0,-315.0,0
3228,32.280,71119.0,-371.0,0
3229,32.290,70648.0,-422.0,0
3230,32.300,72126.0,-464.0,0
3231,32.310,72162.0,-475.0,0
3232,32.320,71639.0,-454.0,0
3233,32.330,71879.0,-417.0,0
3234,32.340,71968.0,-368.0,0
3235,32.350,72123.0,-306.0,0
3236,32.360,72492.0,-233.0,0
3237,32.370,72678.0,-146.0,0
3238,32.380,72646.0,-47.0,0
3239,32.390,72659.0,56.0,0
3240,32.400,72514.0,157.0,0
3241,32.410,72646.0,249.0,0
3242,32.420,72601.0,331.0,0
3243,32.430,72590.0,400.0,0
3244,32.440,72486.0,455.0,0
3245,32.450,72648.0,495.0,0
3246,32.460,72515.0,522.0,0
3247,32.470,72667.0,537.0,0
3248,32.480,72187.0,539.0,0
3249,32.490,72512.0,526.0,0
3250,32.500,72285.0,500.0,0
3251,32.510,73519.0,474.0,0
3252,32.520,72616.0,457.0,1
3253,32.530,72462.0,440.0,0
3254,32.540,72211.0,411.0,0
3255,32.550,72216.0,369.0,0
3256,32.560,72212.0,316.0,0
3257,32.570,71885.0,254.0,0
3258,32.580,72111.0,184.0,0
3259,32.590,71941.0,-80.0,0
3260,32.600,72078.0,-135.0,0
3261,32.610,72121.0,-181.0,0
3262,32.620,71861.0,-220.0,0
3263,32.630,72055.0,-253.0,0
3264,32.640,72007.0,-279.0,0
3265,32.650,71863.0,-299.0,0
3266,32.660,71596.0,-318.0,0
3267,32.670,72104.0,-334.0,0
3268,32.680,71484.0,-347.0,0
3269,32.690,72916.0,-350.0,0
3270,32.700,72983.0,-328.0,0
3271,32.710,71318.0,-290.0,0
3272,32.720,72120.0,-236.0,0
3273,32.730,72108.0,-213.0,0
3274,32.740,71956.0,-190.0,0
3275,32.750,72109.0,-169.0,0
3276,32.760,72117.0,-149.0,0
3277,32.770,71328.0,-102.0,0
3278,32.780,72003.0,-101.0,0
3279,32.790,72086.0,-103.0,0
3280,32.800,72101.0,-100.0,0
3281,32.810,71968.0,-92.0,0
3282,32.820,71998.0,-84.0,0
3283,32.830,72058.0,-74.0,0
3284,32.840,72045.0,-64.0,0
3285,32.850,71993.0,-52.0,0
3286,32.860,72019.0,19.0,0
3287,32.870,71886.0,32.0,0
3288,32.880,72000.0,39.0,0
3289,32.890,71949.0,36.0,0
3290,32.900,71827.0,29.0,0
3291,32.910,72050.0,21.0,0
3292,32.920,72118.0,18.0,0
3293,32.930,72174.0,26.0,0
3294,32.940,72118.0,36.0,0
3295,32.950,72134.0,88.0,0
3296,32.960,72028.0,107.0,0
3297,32.970,72104.0,119.0,0
3298,32.980,72282.0,125.0,0
3299,32.990,72030.0,128.0,0
3300,33.000,72279.0,129.0,0
3301,33.010,72193.0,128.0,0
3302,33.020,72094.0,125.0,0
3303,33.030,72296.0,120.0,0
3304,33.040,72179.0,116.0,1
3305,33.050,72225.0,111.0,0
3306,33.060,72352.0,106.0,0
3307,33.070,72208.0,103.0,0
3308,33.080,72179.0,99.0,0
3309,33.090,72269.0,93.0,0
3310,33.100,72184.0,87.0,0
3311,33.110,71791.0,59.0,0
3312,33.120,73210.0,49.0,0
3313,33.130,72252.0,52.0,0
3314,33.140,71935.0,-13.0,0
3315,33.150,71480.0,-44.0,0
3316,33.160,71932.0,-80.0,0
3317,33.170,71676.0,-192.0,0
3318,33.180,71871.0,-208.0,0
3319,33.190,71966.0,-219.0,0
3320,33.200,71844.0,-222.0,0
3321,33.210,71932.0,-222.0,0
3322,33.220,71933.0,-208.0,0
3323,33.230,71534.0,-192.0,0
3324,33.240,72796.0,-171.0,0
3325,33.250,72013.0,-137.0,0
3326,33.260,72055.0,-97.0,0
3327,33.270,71612.0,-63.0,0
3328,33.280,72110.0,-37.0,0
3329,33.290,72122.0,-13.0,0
3330,33.300,72211.0,74.0,0
3331,33.310,72231.0,86.0,0
3332,33.320,71670.0,96.0,0
3333,33.330,72110.0,100.0,0
3334,33.340,72150.0,102.0,0
3335,33.350,72136.0,106.0,0
3336,33.360,71619.0,107.0,0
3337,33.370,72218.0,102.0,0
3338,33.380,72219.0,99.0,0
3339,33.390,72140.0,100.0,0
3340,33.400,71747.0,100.0,1
3341,33.410,73046.0,102.0,0
3342,33.420,72021.0,114.0,0
3343,33.430,72132.0,127.0,0
3344,33.440,72196.0,135.0,0
3345,33.450,72095.0,138.0,0
3346,33.460,72232.0,139.0,0
3347,33.470,72310.0,138.0,0
3348,33.480,72204.0,137.0,0
3349,33.490,72339.0,137.0,0
3350,33.500,72341.0,136.0,0
3351,33.510,72244.0,136.0,0
3352,33.520,72328.0,131.0,0
3353,33.530,72420.0,127.0,0
3354,33.540,72556.0,124.0,0
3355,33.550,72497.0,125.0,0
3356,33.560,72643.0,128.0,0
3357,33.570,72644.0,134.0,0
3358,33.580,72049.0,138.0,0
3359,33.590,73505.0,140.0,0
3360,33.600,72557.0,152.0,0
3361,33.610,72517.0,165.0,0
3362,33.620,72554.0,159.0,0
3363,33.630,72611.0,145.0,0
3364,33.640,72532.0,130.0,0
3365,33.650,72664.0,79.0,0
3366,33.660,72658.0,64.0,0
3367,33.670,72822.0,51.0,0
3368,33.680,72784.0,42.0,0
3369,33.690,72379.0,32.0,0
3370,33.700,72753.0,19.0,0
3371,33.710,72759.0,5.0,0
3372,33.720,72631.0,-5.0,0
3373,33.730,72734.0,-15.0,0
3374,33.740,71963.0,-30.0,0
3375,33.750,72718.0,-59.0,0
3376,33.760,72590.0,-61.0,0
3377,33.770,72674.0,-66.0,0
3378,33.780,72476.0,-73.0,0
3379,33.790,72547.0,-84.0,0
3380,33.800,72672.0,-119.0,0
3381,33.810,72695.0,-120.0,0
3382,33.820,72750.0,-119.0,0
3383,33.830,72553.0,-118.0,0
3384,33.840,72739.0,-117.0,0
3385,33.850,72800.0,-115.0,0
3386,33.860,72547.0,-112.0,0
3387,33.870,72698.0,-110.0,0
3388,33.880,72431.0,-111.0,0
3389,33.890,71577.0,-122.0,0
3390,33.900,71917.0,-153.0,0
3391,33.910,72259.0,-194.0,0
3392,33.920,72147.0,-232.0,0
3393,33.930,72214.0,-265.0,0
3394,33.940,72122.0,-293.0,0
3395,33.950,73432.0,-305.0,0
3396,33.960,72714.0,-216.0,0
3397,33.970,72675.0,-187.0,0
3398,33.980,72598.0,-154.0,0
3399,33.990,72472.0,-121.0,0
3400,34.000,72542.0,-53.0,0
3401,34.010,72643.0,-34.0,0
3402,34.020,72449.0,-17.0,0
3403,34.030,72627.0,-2.0,0
3404,34.040,72544.0,11.0,0
3405,34.050,72755.0,38.0,0
3406,34.060,72566.0,53.0,0
3407,34.070,72625.0,65.0,0
3408,34.080,71893.0,69.0,0
3409,34.090,73334.0,67.0,0
3410,34.100,73489.0,79.0,0
3411,34.110,72522.0,104.0,0
3412,34.120,72747.0,126.0,0
3413,34.130,72649.0,140.0,0
3414,34.140,72648.0,146.0,0
3415,34.150,72610.0,110.0,1
3416,34.160,71940.0,91.0,0
3417,34.170,72680.0,64.0,0
3418,34.180,72878.0,15.0,0
3419,34.190,72842.0,18.0,0
3420,34.200,72894.0,25.0,0
3421,34.210,72916.0,36.0,0
3422,34.220,72043.0,43.0,0
3423,34.230,72033.0,33.0,0
3424,34.240,73583.0,18.0,0
3425,34.250,73543.0,21.0,0
3426,34.260,72292.0,38.0,0
3427,34.270,72792.0,50.0,0
3428,34.280,72805.0,60.0,0
3429,34.290,72778.0,64.0,0
3430,34.300,72646.0,63.0,0
3431,34.310,72822.0,59.0,0
3432,34.320,72686.0,53.0,0
3433,34.330,72809.0,45.0,0
3434,34.340,72657.0,36.0,0
3435,34.350,72669.0,26.0,0
3436,34.360,72773.0,14.0,0
3437,34.370,72729.0,3.0,0
3438,34.380,72599.0,-7.0,0
3439,34.390,72750.0,-19.0,0
3440,34.400,72723.0,-29.0,0
3441,34.410,72682.0,-38.0,0
3442,34.420,72778.0,-45.0,0
3443,34.430,71999.0,-55.0,0
3444,34.440,72402.0,-75.0,0
3445,34.450,73553.0,-92.0,0
3446,34.460,72563.0,-92.0,0
3447,34.470,72615.0,-87.0,0
3448,34.480,72697.0,-84.0,0
3449,34.490,72705.0,-81.0,0
3450,34.500,72043.0,-81.0,0
3451,34.510,72678.0,-89.0,0
3452,34.520,72717.0,-97.0,0
3453,34.530,72670.0,-100.0,0
3454,34.540,72647.0,-98.0,0
3455,34.550,72590.0,-95.0,0
3456,34.560,72820.0,-89.0,0
3457,34.570,72761.0,-79.0,0
3458,34.580,72416.0,-40.0,0
3459,34.590,72411.0,-41.0,0
3460,34.600,72255.0,-48.0,0
3461,34.610,72350.0,-104.0,0
3462,34.620,72370.0,-97.0,0
3463,34.630,72299.0,-94.0,0
3464,34.640,72367.0,-95.0,0
3465,34.650,72232.0,-108.0,0
3466,34.660,72327.0,-116.0,0
3467,34.670,72277.0,-121.0,0
3468,34.680,72151.0,-124.0,0
3469,34.690,72240.0,-132.0,0
3470,34.700,72242.0,-133.0,0
3471,34.710,72092.0,-131.0,0
3472,34.720,72159.0,-129.0,0
3473,34.730,72306.0,-126.0,0
3474,34.740,72175.0,-118.0,0
3475,34.750,71434.0,-114.0,0
3476,34.760,72793.0,-113.0,0
3477,34.770,72814.0,-100.0,0
3478,34.780,71516.0,-77.0,0
3479,34.790,71776.0,-64.0,0
3480,34.800,71837.0,-65.0,0
3481,34.810,71760.0,-72.0,0
3482,34.820,71703.0,-84.0,0
3483,34.830,71342.0,-101.0,0
3484,34.840,71605.0,-125.0,0
3485,34.850,71834.0,-148.0,0
3486,34.860,71540.0,-166.0,0
3487,34.870,71139.0,-183.0,0
3488,34.880,71724.0,-202.0,0
3489,34.890,71497.0,-216.0,0
3490,34.900,71605.0,-222.0,0
3491,34.910,71723.0,-221.0,0
3492,34.920,71482.0,-162.0,0
3493,34.930,70891.0,-146.0,0
3494,34.940,72317.0,-132.0,0
3495,34.950,71478.0,0.0,0
3496,34.960,71446.0,20.0,0
3497,34.970,71586.0,38.0,0
3498,34.980,71376.0,52.0,0
3499,34.990,71576.0,65.0,0
3500,35.000,71523.0,76.0,0
3501,35.010,71400.0,87.0,0
3502,35.020,71493.0,95.0,0
3503,35.030,70961.0,112.0,0
3504,35.040,71412.0,106.0,0
3505,35.050,71396.0,98.0,0
3506,35.060,71345.0,93.0,0
3507,35.070,71448.0,91.0,1
3508,35.080,70870.0,86.0,0
3509,35.090,72228.0,84.0,0
3510,35.100,72247.0,100.0,0
3511,35.110,71195.0,130.0,0
3512,35.120,71276.0,154.0,0
3513,35.130,70890.0,65.0,0
3514,35.140,70915.0,29.0,0
3515,35.150,70368.0,-9.0,0
3516,35.160,70864.0,-50.0,0
3517,35.170,70886.0,-88.0,0
3518,35.180,70896.0,-116.0,0
3519,35.190,70768.0,-135.0,0
3520,35.200,70829.0,-148.0,0
3521,35.210,70909.0,-155.0,0
3522,35.220,70850.0,-154.0,0
3523,35.230,70849.0,-147.0,0
3524,35.240,71738.0,-127.0,0
3525,35.250,71662.0,-95.0,0
3526,35.260,70764.0,-47.0,0
3527,35.270,70668.0,-6.0,0
3528,35.280,70732.0,22.0,0
3529,35.290,70535.0,39.0,0
3530,35.300,70603.0,45.0,0
3531,35.310,70493.0,43.0,0
3532,35.320,70171.0,32.0,0
3533,35.330,70283.0,11.0,0
3534,35.340,70129.0,-16.0,0
3535,35.350,69823.0,-51.0,0
3536,35.360,69704.0,-95.0,0
3537,35.370,69574.0,-147.0,0
3538,35.380,69330.0,-206.0,0
3539,35.390,69340.0,-269.0,0
3540,35.400,69388.0,-332.0,0
3541,35.410,68986.0,-392.0,0
3542,35.420,69202.0,-449.0,0
3543,35.430,69369.0,-497.0,0
3544,35.440,69171.0,-531.0,0
3545,35.450,70591.0,-542.0,0
3546,35.460,70576.0,-513.0,0
3547,35.470,70131.0,-448.0,0
3548,35.480,70230.0,-365.0,0
3549,35.490,70293.0,-272.0,0
3550,35.500,70461.0,-173.0,0
3551,35.510,70374.0,-69.0,0
3552,35.520,70376.0,33.0,0
3553,35.530,70491.0,131.0,0
3554,35.540,70455.0,223.0,0
3555,35.550,70568.0,307.0,0
3556,35.560,70548.0,383.0,0
3557,35.570,70381.0,448.0,0
3558,35.580,70503.0,501.0,0
3559,35.590,70366.0,540.0,0
3560,35.600,70379.0,566.0,0
3561,35.610,70557.0,581.0,0
3562,35.620,70455.0,588.0,0
3563,35.630,70564.0,589.0,0
3564,35.640,70548.0,584.0,0
3565,35.650,70091.0,572.0,0
3566,35.660,71469.0,557.0,0
3567,35.670,71506.0,556.0,1
3568,35.680,70480.0,568.0,0
3569,35.690,70533.0,571.0,0
3570,35.700,70437.0,558.0,0
3571,35.710,70504.0,412.0,0
3572,35.720,70521.0,364.0,0
3573,35.730,70379.0,316.0,0
3574,35.740,70477.0,268.0,0
3575,35.750,70507.0,222.0,0
3576,35.760,70365.0,180.0,0
3577,35.770,70457.0,140.0,0
3578,35.780,70514.0,103.0,0
3579,35.790,70589.0,73.0,0
3580,35.800,70488.0,48.0,0
3581,35.810,70083.0,-9.0,0
3582,35.820,70463.0,-30.0,0
3583,35.830,71286.0,-42.0,0
3584,35.840,71237.0,-35.0,0
3585,35.850,69892.0,-17.0,0
3586,35.860,70489.0,-11.0,0
3587,35.870,70385.0,-14.0,0
3588,35.880,70435.0,-21.0,0
3589,35.890,70585.0,-29.0,0
3590,35.900,70517.0,-36.0,0
3591,35.910,70111.0,-106.0,0
3592,35.920,70266.0,-132.0,0
3593,35.930,70302.0,-155.0,0
3594,35.940,70210.0,-173.0,0
3595,35.950,70261.0,-187.0,0
3596,35.960,70354.0,-203.0,0
3597,35.970,70282.0,-204.0,0
3598,35.980,69808.0,-204.0,0
3599,35.990,71121.0,-200.0,0
3600,36.000,70293.0,-183.0,0
3601,36.010,69389.0,-120.0,0
3602,36.020,70323.0,-118.0,0
3603,36.030,70301.0,-119.0,0
3604,36.040,70135.0,-116.0,0
3605,36.050,70329.0,-111.0,0
3606,36.060,70255.0,-104.0,0
3607,36.070,70324.0,-94.0,0
3608,36.080,70355.0,-81.0,0
3609,36.090,70194.0,-66.0,0
3610,36.100,70316.0,-53.0,0
3611,36.110,70237.0,-40.0,0
3612,36.120,70163.0,-29.0,0
3613,36.130,70282.0,-20.0,0
3614,36.140,70275.0,-12.0,0
3615,36.150,69486.0,-9.0,0
3616,36.160,70053.0,-26.0,0
3617,36.170,70256.0,-29.0,0
3618,36.180,70318.0,-28.0,0
3619,36.190,70144.0,-1.0,0
3620,36.200,70334.0,6.0,0
3621,36.210,70170.0,15.0,0
3622,36.220,70290.0,65.0,0
3623,36.230,69840.0,73.0,0
3624,36.240,70139.0,72.0,0
3625,36.250,70220.0,68.0,0
3626,36.260,70196.0,64.0,0
3627,36.270,70200.0,61.0,0
3628,36.280,69976.0,57.0,0
3629,36.290,71077.0,58.0,0
3630,36.300,70374.0,70.0,0
3631,36.310,70350.0,88.0,0
3632,36.320,70206.0,103.0,0
3633,36.330,70424.0,112.0,0
3634,36.340,70316.0,119.0,0
3635,36.350,70305.0,124.0,0
3636,36.360,70396.0,126.0,0
3637,36.370,70217.0,125.0,0
3638,36.380,70438.0,122.0,0
3639,36.390,70421.0,119.0,0
3640,36.400,70282.0,116.0,1
3641,36.410,70414.0,111.0,0
3642,36.420,70487.0,107.0,0
3643,36.430,70483.0,105.0,0
3644,36.440,70545.0,105.0,0
3645,36.450,70306.0,105.0,0
3646,36.460,70355.0,101.0,0
3647,36.470,70451.0,96.0,0
3648,36.480,70424.0,89.0,0
3649,36.490,70181.0,81.0,0
3650,36.500,71468.0,77.0,0
3651,36.510,70578.0,106.0,0
3652,36.520,69777.0,105.0,0
3653,36.530,70537.0,91.0,0
3654,36.540,70592.0,74.0,0
3655,36.550,70623.0,61.0,0
3656,36.560,70220.0,50.0,0
3657,36.570,70577.0,23.0,0
3658,36.580,70736.0,22.0,0
3659,36.590,70690.0,24.0,0
3660,36.600,70609.0,28.0,0
3661,36.610,70841.0,34.0,0
3662,36.620,70858.0,42.0,0
3663,36.630,70719.0,53.0,0
3664,36.640,70815.0,63.0,0
3665,36.650,70764.0,71.0,0
3666,36.660,70230.0,74.0,0
3667,36.670,71546.0,73.0,0
3668,36.680,70612.0,78.0,0
3669,36.690,70478.0,81.0,0
3670,36.700,70584.0,74.0,0
3671,36.710,70421.0,59.0,0
3672,36.720,70577.0,38.0,0
3673,36.730,70491.0,14.0,1
3674,36.740,70313.0,-11.0,0
3675,36.750,70486.0,-41.0,0
3676,36.760,70293.0,-71.0,0
3677,36.770,70293.0,-102.0,0
3678,36.780,70329.0,-133.0,0
3679,36.790,69969.0,-219.0,0
3680,36.800,70465.0,-233.0,0
3681,36.810,70442.0,-242.0,0
3682,36.820,70332.0,-243.0,0
3683,36.830,70477.0,-239.0,0
3684,36.840,69999.0,-234.0,0
3685,36.850,71449.0,-221.0,0
3686,36.860,70593.0,-193.0,0
3687,36.870,70531.0,-155.0,0
3688,36.880,70169.0,-124.0,0
3689,36.890,70344.0,-15.0,0
3690,36.900,71178.0,13.0,0
3691,36.910,71511.0,50.0,0
3692,36.920,71485.0,101.0,0
3693,36.930,71857.0,163.0,0
3694,36.940,71922.0,237.0,0
3695,36.950,72120.0,318.0,0
3696,36.960,72185.0,403.0,0
3697,36.970,72051.0,487.0,0
3698,36.980,72022.0,562.0,0
3699,36.990,72059.0,624.0,0
3700,37.000,71226.0,682.0,0
3701,37.010,72507.0,655.0,0
3702,37.020,71876.0,626.0,0
3703,37.030,71897.0,456.0,0
3704,37.040,71906.0,404.0,0
3705,37.050,71910.0,351.0,0
3706,37.060,71794.0,297.0,0
3707,37.070,71646.0,241.0,0
3708,37.080,71788.0,182.0,0
3709,37.090,71744.0,123.0,0
3710,37.100,71333.0,62.0,0
3711,37.110,71168.0,-4.0,0
3712,37.120,71407.0,-77.0,0
3713,37.130,71478.0,-148.0,0
3714,37.140,71519.0,-213.0,0
3715,37.150,71018.0,-272.0,0
3716,37.160,71490.0,-328.0,0
3717,37.170,71244.0,-377.0,0
3718,37.180,72782.0,-408.0,0
3719,37.190,72647.0,-402.0,0
3720,37.200,72054.0,-367.0,0
3721,37.210,72241.0,-321.0,0
3722,37.220,72396.0,-269.0,0
3723,37.230,72389.0,-212.0,0
3724,37.240,72442.0,-154.0,0
3725,37.250,72428.0,-96.0,0
3726,37.260,72680.0,-41.0,0
3727,37.270,72638.0,12.0,0
3728,37.280,72669.0,63.0,0
3729,37.290,72916.0,110.0,0
3730,37.300,72948.0,155.0,0
3731,37.310,72997.0,198.0,0
3732,37.320,72566.0,234.0,0
3733,37.330,72816.0,257.0,0
3734,37.340,72872.0,268.0,0
3735,37.350,72756.0,272.0,0
3736,37.360,73366.0,128.0,0
3737,37.370,72339.0,101.0,0
3738,37.380,72601.0,70.0,0
3739,37.390,72588.0,32.0,0
3740,37.400,72929.0,-78.0,0
3741,37.410,73082.0,-101.0,0
3742,37.420,73155.0,-112.0,0
3743,37.430,72814.0,-116.0,0
3744,37.440,73182.0,-118.0,0
3745,37.450,73179.0,-114.0,0
3746,37.460,73000.0,-107.0,0
3747,37.470,73034.0,-101.0,0
3748,37.480,73054.0,-97.0,0
3749,37.490,72919.0,-95.0,0
3750,37.500,72403.0,-119.0,0
3751,37.510,74089.0,-132.0,0
3752,37.520,74106.0,-123.0,0
3753,37.530,72442.0,-101.0,0
3754,37.540,72996.0,-91.0,0
3755,37.550,72710.0,-96.0,0
3756,37.560,72444.0,-115.0,0
3757,37.570,71790.0,-154.0,0
3758,37.580,72185.0,-214.0,0
3759,37.590,71841.0,-287.0,0
3760,37.600,71840.0,-367.0,0
3761,37.610,71704.0,-452.0,0
3762,37.620,71613.0,-536.0,0
3763,37.630,71535.0,-618.0,0
3764,37.640,71393.0,-695.0,0
3765,37.650,71303.0,-767.0,0
3766,37.660,70758.0,-834.0,0
3767,37.670,70944.0,-901.0,0
3768,37.680,71059.0,-960.0,0
3769,37.690,70745.0,-1008.0,0
3770,37.700,70053.0,-1050.0,0
3771,37.710,69965.0,-1095.0,0
3772,37.720,71308.0,-1133.0,0
3773,37.730,71381.0,-1140.0,0
3774,37.740,70507.0,-1114.0,0
3775,37.750,70292.0,-1077.0,0
3776,37.760,70540.0,-1038.0,0
3777,37.770,70515.0,-991.0,0
3778,37.780,70344.0,-938.0,0
3779,37.790,70211.0,-882.0,0
3780,37.800,70399.0,-825.0,0
3781,37.810,70379.0,-763.0,0
3782,37.820,70389.0,-695.0,0
3783,37.830,70264.0,-625.0,0
3784,37.840,70414.0,-553.0,0
3785,37.850,70326.0,-479.0,0
3786,37.860,70457.0,-403.0,0
3787,37.870,70396.0,-325.0,0
3788,37.880,70113.0,-249.0,0
3789,37.890,70054.0,-181.0,0
3790,37.900,70166.0,-122.0,0
3791,37.910,69966.0,-68.0,0
3792,37.920,69557.0,-26.0,0
3793,37.930,70902.0,11.0,0
3794,37.940,70909.0,62.0,0
3795,37.950,70214.0,127.0,0
3796,37.960,70220.0,190.0,0
3797,37.970,70140.0,243.0,0
3798,37.980,70344.0,289.0,0
3799,37.990,70425.0,331.0,0
3800,38.000,70469.0,371.0,0
3801,38.010,70408.0,411.0,0
3802,38.020,70536.0,448.0,0
3803,38.030,70714.0,484.0,0
3804,38.040,70722.0,651.0,0
3805,38.050,70450.0,663.0,0
3806,38.060,70596.0,667.0,0
3807,38.070,70492.0,662.0,0
3808,38.080,70028.0,647.0,0
3809,38.090,71244.0,625.0,0
3810,38.100,71169.0,613.0,1
3811,38.110,70486.0,609.0,0
3812,38.120,70520.0,600.0,0
3813,38.130,70806.0,584.0,0
3814,38.140,70752.0,566.0,0
3815,38.150,70666.0,547.0,0
3816,38.160,70844.0,526.0,0
3817,38.170,70927.0,507.0,0
3818,38.180,70735.0,490.0,0
3819,38.190,70875.0,472.0,0
3820,38.200,70736.0,435.0,0
3821,38.210,70798.0,414.0,0
3822,38.220,70827.0,391.0,0
3823,38.230,70745.0,366.0,0
3824,38.240,71008.0,342.0,0
3825,38.250,71030.0,321.0,0
3826,38.260,70827.0,303.0,0
3827,38.270,70941.0,285.0,0
3828,38.280,70406.0,263.0,0
3829,38.290,71817.0,242.0,0
3830,38.300,71762.0,238.0,0
3831,38.310,70871.0,247.0,0
3832,38.320,70758.0,251.0,0
3833,38.330,70573.0,239.0,0
3834,38.340,70596.0,212.0,0
3835,38.350,70633.0,174.0,0
3836,38.360,70599.0,-10.0,0
3837,38.370,70647.0,-51.0,0
3838,38.380,70489.0,-89.0,0
3839,38.390,70517.0,-125.0,0
3840,38.400,70478.0,-159.0,0
3841,38.410,70467.0,-189.0,0
3842,38.420,69897.0,-220.0,0
3843,38.430,70621.0,-253.0,0
3844,38.440,70539.0,-279.0,0
3845,38.450,70605.0,-293.0,0
3846,38.460,70152.0,-300.0,0
3847,38.470,70805.0,-303.0,0
3848,38.480,71288.0,-292.0,0
3849,38.490,70423.0,-265.0,0
3850,38.500,70502.0,-236.0,0
3851,38.510,70551.0,-212.0,0
3852,38.520,70322.0,-191.0,0
3853,38.530,70459.0,-176.0,0
3854,38.540,70492.0,-164.0,0
3855,38.550,70390.0,-154.0,0
3856,38.560,70452.0,-146.0,0
3857,38.570,70393.0,-139.0,0
3858,38.580,70314.0,-134.0,0
3859,38.590,70301.0,-131.0,0
3860,38.600,70326.0,-131.0,0
3861,38.610,70027.0,-134.0,0
3862,38.620,70284.0,-140.0,0
3863,38.630,70363.0,-145.0,0
3864,38.640,70436.0,-146.0,0
3865,38.650,70395.0,-141.0,0
3866,38.660,70307.0,-132.0,0
3867,38.670,69903.0,-125.0,0
3868,38.680,70888.0,-119.0,0
3869,38.690,71061.0,-99.0,0
3870,38.700,69970.0,-69.0,0
3871,38.710,70154.0,-46.0,0
3872,38.720,70316.0,-33.0,0
3873,38.730,70370.0,-23.0,0
3874,38.740,69788.0,-18.0,0
3875,38.750,70269.0,-21.0,0
3876,38.760,70251.0,-26.0,0
3877,38.770,70207.0,-29.0,0
3878,38.780,69307.0,-38.0,0
3879,38.790,70154.0,-57.0,0
3880,38.800,70197.0,-76.0,0
3881,38.810,70141.0,-94.0,0
3882,38.820,70034.0,-91.0,0
3883,38.830,70049.0,-85.0,0
3884,38.840,69965.0,-79.0,0
3885,38.850,70437.0,-94.0,0
3886,38.860,70222.0,-95.0,0
3887,38.870,69293.0,-89.0,0
3888,38.880,69189.0,-93.0,0
3889,38.890,69122.0,-114.0,0
3890,38.900,68845.0,-148.0,0
3891,38.910,68772.0,-193.0,0
3892,38.920,68763.0,-246.0,0
3893,38.930,68568.0,-303.0,0
3894,38.940,68267.0,-362.0,0
3895,38.950,68256.0,-426.0,0
3896,38.960,68070.0,-605.0,0
3897,38.970,68121.0,-650.0,0
3898,38.980,68472.0,-679.0,0
3899,38.990,69076.0,-582.0,0
3900,39.000,68726.0,-504.0,0
3901,39.010,70038.0,-405.0,0
3902,39.020,70019.0,-278.0,0
3903,39.030,69220.0,-132.0,0
3904,39.040,69353.0,10.0,0
3905,39.050,68343.0,134.0,0
3906,39.060,69345.0,231.0,0
3907,39.070,69398.0,315.0,0
3908,39.080,69253.0,391.0,0
3909,39.090,68891.0,454.0,0
3910,39.100,69269.0,500.0,0
3911,39.110,69245.0,534.0,0
3912,39.120,69266.0,561.0,0
3913,39.130,69172.0,579.0,0
3914,39.140,69345.0,590.0,0
3915,39.150,69335.0,595.0,0
3916,39.160,69256.0,596.0,0
3917,39.170,69250.0,573.0,0
3918,39.180,69294.0,557.0,1
3919,39.190,68795.0,533.0,0
3920,39.200,70024.0,506.0,0
3921,39.210,70080.0,492.0,0
3922,39.220,69233.0,490.0,0
3923,39.230,69323.0,484.0,0
3924,39.240,69263.0,468.0,0
3925,39.250,69163.0,444.0,0
3926,39.260,69355.0,413.0,0
3927,39.270,69276.0,380.0,0
3928,39.280,69192.0,344.0,0
3929,39.290,69121.0,306.0,0
3930,39.300,69096.0,265.0,0
3931,39.310,69170.0,222.0,0
3932,39.320,69239.0,73.0,0
3933,39.330,69261.0,46.0,0
3934,39.340,69092.0,23.0,0
3935,39.350,69152.0,3.0,0
3936,39.360,68998.0,-15.0,0
3937,39.370,68571.0,-37.0,0
3938,39.380,69890.0,-58.0,0
3939,39.390,69542.0,-63.0,0
3940,39.400,68902.0,-57.0,0
3941,39.410,69004.0,-55.0,0
3942,39.420,68918.0,-87.0,0
3943,39.430,68986.0,-97.0,0
3944,39.440,69074.0,-105.0,0
3945,39.450,68955.0,-112.0,0
3946,39.460,68727.0,-119.0,0
3947,39.470,69061.0,-127.0,0
3948,39.480,68986.0,-132.0,0
3949,39.490,68940.0,-134.0,0
3950,39.500,68797.0,-136.0,0
3951,39.510,68556.0,-140.0,0
3952,39.520,69486.0,-198.0,0
3953,39.530,68684.0,-195.0,0
3954,39.540,68662.0,-185.0,0
3955,39.550,68716.0,-177.0,0
3956,39.560,68692.0,-168.0,0
3957,39.570,68575.0,-160.0,0
3958,39.580,68506.0,-153.0,0
3959,39.590,68632.0,-149.0,0
3960,39.600,68436.0,-146.0,0
3961,39.610,68665.0,-144.0,0
3962,39.620,68632.0,-139.0,0
3963,39.630,68488.0,-132.0,0
3964,39.640,68633.0,-124.0,0
3965,39.650,68687.0,-114.0,0
3966,39.660,68585.0,-100.0,0
3967,39.670,68614.0,-86.0,0
3968,39.680,68750.0,-70.0,0
3969,39.690,68524.0,-52.0,0
3970,39.700,68639.0,-36.0,0
3971,39.710,68767.0,-19.0,0
3972,39.720,68257.0,-3.0,0
3973,39.730,69265.0,11.0,0
3974,39.740,68646.0,32.0,0
3975,39.750,68703.0,55.0,0
3976,39.760,68514.0,74.0,0
3977,39.770,68529.0,86.0,0
3978,39.780,68594.0,92.0,0
3979,39.790,68537.0,95.0,0
3980,39.800,68740.0,96.0,0
3981,39.810,68712.0,99.0,0
3982,39.820,68715.0,74.0,0
3983,39.830,68618.0,70.0,0
3984,39.840,68478.0,68.0,0
3985,39.850,68641.0,67.0,0
3986,39.860,68723.0,67.0,0
3987,39.870,68744.0,72.0,0
3988,39.880,68672.0,79.0,0
3989,39.890,68768.0,89.0,0
3990,39.900,68800.0,100.0,0
3991,39.910,68421.0,110.0,0
3992,39.920,69646.0,122.0,0
3993,39.930,68676.0,143.0,0
3994,39.940,68704.0,165.0,0
3995,39.950,68871.0,178.0,0
3996,39.960,68758.0,188.0,0
3997,39.970,68905.0,194.0,0
3998,39.980,68879.0,198.0,0
3999,39.990,68692.0,199.0,0
4000,40.000,68745.0,195.0,0
4001,40.010,68740.0,186.0,0
4002,40.020,68823.0,174.0,0
4003,40.030,68804.0,162.0,1
4004,40.040,68623.0,148.0,0
4005,40.050,68832.0,132.0,0
4006,40.060,68905.0,118.0,0
4007,40.070,68767.0,105.0,0
4008,40.080,68656.0,93.0,0
4009,40.090,68884.0,80.0,0
4010,40.100,68749.0,67.0,0
4011,40.110,68862.0,57.0,0
4012,40.120,68862.0,37.0,0
4013,40.130,68777.0,42.0,0
4014,40.140,68811.0,43.0,0
4015,40.150,68839.0,42.0,0
4016,40.160,68698.0,37.0,0
4017,40.170,68816.0,25.0,0
4018,40.180,68767.0,19.0,0
4019,40.190,68829.0,-12.0,0
4020,40.200,68692.0,-21.0,0
4021,40.210,68752.0,-30.0,0
4022,40.220,68852.0,-39.0,0
4023,40.230,68712.0,-46.0,0
4024,40.240,68799.0,-51.0,0
4025,40.250,68710.0,-57.0,0
4026,40.260,68771.0,-61.0,0
4027,40.270,68455.0,-67.0,0
4028,40.280,69600.0,-70.0,0
4029,40.290,68910.0,-59.0,0
4030,40.300,68819.0,-43.0,0
4031,40.310,68796.0,-31.0,0
4032,40.320,68832.0,-2.0,0
4033,40.330,68986.0,4.0,0
4034,40.340,68897.0,10.0,0
4035,40.350,68838.0,14.0,0
4036,40.360,68838.0,16.0,0
4037,40.370,68779.0,15.0,0
4038,40.380,68885.0,11.0,0
4039,40.390,68761.0,6.0,0
4040,40.400,68043.0,-6.0,0
4041,40.410,68742.0,-29.0,0
4042,40.420,68677.0,-54.0,0
4043,40.430,68722.0,-75.0,0
4044,40.440,68801.0,-90.0,0
4045,40.450,68588.0,-101.0,0
4046,40.460,68370.0,-111.0,0
4047,40.470,68725.0,-93.0,0
4048,40.480,68769.0,-81.0,0
4049,40.490,68734.0,-70.0,0
4050,40.500,68814.0,-63.0,0
4051,40.510,68715.0,-59.0,0
4052,40.520,68875.0,-53.0,0
4053,40.530,68748.0,-44.0,0
4054,40.540,68740.0,-35.0,0
4055,40.550,68769.0,-8.0,0
4056,40.560,68724.0,-1.0,0
4057,40.570,68725.0,3.0,0
4058,40.580,68875.0,8.0,0
4059,40.590,68814.0,13.0,0
4060,40.600,68311.0,16.0,0
4061,40.610,68685.0,46.0,0
4062,40.620,68841.0,55.0,0
4063,40.630,68663.0,59.0,0
4064,40.640,68828.0,59.0,0
4065,40.650,68593.0,49.0,0
4066,40.660,68755.0,40.0,1
4067,40.670,68708.0,30.0,0
4068,40.680,68649.0,-15.0,0
4069,40.690,68963.0,-33.0,0
4070,40.700,69071.0,-40.0,0
4071,40.710,69214.0,-32.0,0
4072,40.720,68565.0,7.0,0
4073,40.730,69648.0,29.0,0
4074,40.740,69744.0,62.0,0
4075,40.750,68764.0,103.0,0
4076,40.760,68980.0,136.0,0
4077,40.770,69120.0,192.0,0
4078,40.780,69143.0,193.0,0
4079,40.790,69094.0,190.0,0
4080,40.800,69126.0,183.0,0
4081,40.810,69024.0,174.0,0
4082,40.820,69164.0,134.0,0
4083,40.830,69204.0,121.0,0
4084,40.840,68979.0,108.0,0
4085,40.850,69149.0,76.0,0
4086,40.860,68892.0,58.0,0
4087,40.870,68390.0,34.0,0
4088,40.880,69810.0,5.0,0
4089,40.890,69712.0,-6.0,0
4090,40.900,69033.0,-3.0,0
4091,40.910,68981.0,-2.0,0
4092,40.920,68894.0,-7.0,0
4093,40.930,69024.0,-19.0,0
4094,40.940,68433.0,-37.0,0
4095,40.950,68947.0,-64.0,0
4096,40.960,68995.0,-92.0,0
4097,40.970,68890.0,-114.0,0
4098,40.980,68982.0,-133.0,0
4099,40.990,68927.0,-148.0,0
4100,41.000,68803.0,-159.0,0
4101,41.010,69048.0,-168.0,0
4102,41.020,68955.0,-172.0,0
4103,41.030,69192.0,-143.0,0
4104,41.040,69182.0,-125.0,0
4105,41.050,68332.0,-110.0,0
4106,41.060,70054.0,-97.0,0
4107,41.070,69921.0,-68.0,0
4108,41.080,69189.0,-23.0,0
4109,41.090,69266.0,18.0,0
4110,41.100,69044.0,50.0,0
4111,41.110,69311.0,72.0,0
4112,41.120,69137.0,87.0,0
4113,41.130,69098.0,85.0,0
4114,41.140,69228.0,76.0,0
4115,41.150,69171.0,66.0,1
4116,41.160,69159.0,56.0,0
4117,41.170,69165.0,44.0,0
4118,41.180,69088.0,17.0,0
4119,41.190,68999.0,1.0,0
4120,41.200,68985.0,-16.0,0
4121,41.210,68997.0,-75.0,0
4122,41.220,69092.0,-64.0,0
4123,41.230,69059.0,-57.0,0
4124,41.240,68944.0,-54.0,0
4125,41.250,69117.0,-55.0,0
4126,41.260,69039.0,-57.0,0
4127,41.270,69055.0,-64.0,0
4128,41.280,68963.0,-68.0,0
4129,41.290,69063.0,-72.0,0
4130,41.300,69043.0,-76.0,0
4131,41.310,68965.0,-79.0,0
4132,41.320,69081.0,-81.0,0
4133,41.330,68992.0,-82.0,0
4134,41.340,69013.0,-82.0,0
4135,41.350,69108.0,-80.0,0
4136,41.360,69072.0,-76.0,0
4137,41.370,69052.0,-71.0,0
4138,41.380,68461.0,-69.0,0
4139,41.390,70002.0,-67.0,0
4140,41.400,69999.0,-46.0,0
4141,41.410,69121.0,-8.0,0
4142,41.420,69071.0,26.0,0
4143,41.430,69151.0,50.0,0
4144,41.440,69051.0,65.0,0
4145,41.450,69084.0,59.0,0
4146,41.460,69051.0,49.0,0
4147,41.470,69166.0,40.0,1
4148,41.480,68958.0,30.0,0
4149,41.490,68977.0,-3.0,0
4150,41.500,69043.0,-14.0,0
4151,41.510,68913.0,-24.0,0
4152,41.520,69100.0,-34.0,0
4153,41.530,69177.0,-40.0,0
4154,41.540,68923.0,-42.0,0
4155,41.550,68648.0,-48.0,0
4156,41.560,69963.0,-50.0,0
4157,41.570,69267.0,66.0,0
4158,41.580,69151.0,83.0,0
4159,41.590,69066.0,92.0,0
4160,41.600,69172.0,94.0,0
4161,41.610,69169.0,91.0,0
4162,41.620,69241.0,86.0,0
4163,41.630,69195.0,66.0,0
4164,41.640,69339.0,60.0,0
4165,41.650,69400.0,56.0,0
4166,41.660,69435.0,52.0,0
4167,41.670,68875.0,50.0,0
4168,41.680,70199.0,48.0,0
4169,41.690,70130.0,62.0,0
4170,41.700,69429.0,90.0,0
4171,41.710,69321.0,113.0,0
4172,41.720,69192.0,124.0,0
4173,41.730,69342.0,123.0,0
4174,41.740,69358.0,115.0,0
4175,41.750,69162.0,102.0,0
4176,41.760,69188.0,83.0,1
4177,41.770,69249.0,59.0,0
4178,41.780,69160.0,33.0,0
4179,41.790,69241.0,6.0,0
4180,41.800,68732.0,-22.0,0
4181,41.810,69285.0,-54.0,0
4182,41.820,69071.0,-85.0,0
4183,41.830,69207.0,-110.0,0
4184,41.840,69160.0,-130.0,0
4185,41.850,68511.0,-149.0,0
4186,41.860,69164.0,-173.0,0
4187,41.870,69203.0,-192.0,0
4188,41.880,68624.0,-205.0,0
4189,41.890,69417.0,-215.0,0
4190,41.900,69969.0,-210.0,0
4191,41.910,69038.0,-188.0,0
4192,41.920,69241.0,-161.0,0
4193,41.930,68982.0,-139.0,0
4194,41.940,69126.0,-121.0,0
4195,41.950,69028.0,-108.0,0
4196,41.960,68802.0,-90.0,0
4197,41.970,68865.0,-96.0,0
4198,41.980,68799.0,-105.0,0
4199,41.990,68862.0,-131.0,0
4200,42.000,68999.0,-133.0,0
4201,42.010,69049.0,-131.0,0
4202,42.020,68792.0,-124.0,0
4203,42.030,68909.0,-118.0,0
4204,42.040,68576.0,-113.0,0
4205,42.050,69752.0,-105.0,0
4206,42.060,69882.0,-78.0,0
4207,42.070,68768.0,-37.0,0
4208,42.080,68937.0,-1.0,0
4209,42.090,68935.0,22.0,0
4210,42.100,68950.0,6.0,0
4211,42.110,68944.0,-5.0,0
4212,42.120,68819.0,-13.0,0
4213,42.130,68452.0,-21.0,0
4214,42.140,68898.0,-33.0,0
4215,42.150,68801.0,-42.0,0
4216,42.160,68953.0,-45.0,0
4217,42.170,68948.0,-43.0,0
4218,42.180,68928.0,0.0,0
4219,42.190,68580.0,12.0,0
4220,42.200,69721.0,26.0,0
4221,42.210,69843.0,55.0,0
4222,42.220,68957.0,98.0,0
4223,42.230,68822.0,135.0,0
4224,42.240,68873.0,156.0,0
4225,42.250,68890.0,166.0,0
4226,42.260,68758.0,166.0,0
4227,42.270,68665.0,157.0,0
4228,42.280,68265.0,-4.0,0
4229,42.290,67974.0,-56.0,0
4230,42.300,67700.0,-115.0,0
4231,42.310,67725.0,-181.0,0
4232,42.320,67654.0,-250.0,0
4233,42.330,67404.0,-452.0,0
4234,42.340,67073.0,-511.0,0
4235,42.350,68290.0,-557.0,0
4236,42.360,67837.0,-578.0,0
4237,42.370,67851.0,-575.0,0
4238,42.380,68061.0,-554.0,0
4239,42.390,68116.0,-516.0,0
4240,42.400,68503.0,-460.0,0
4241,42.410,67540.0,-393.0,0
4242,42.420,68647.0,-322.0,0
4243,42.430,68775.0,-241.0,0
4244,42.440,68794.0,-144.0,0
4245,42.450,68826.0,-38.0,0
4246,42.460,68614.0,68.0,0
4247,42.470,68827.0,417.0,0
4248,42.480,68761.0,476.0,0
4249,42.490,68697.0,522.0,0
4250,42.500,68809.0,555.0,0
4251,42.510,68812.0,577.0,0
4252,42.520,68106.0,584.0,0
4253,42.530,69560.0,579.0,0
4254,42.540,69551.0,581.0,0
4255,42.550,68653.0,589.0,0
4256,42.560,68789.0,588.0,0
4257,42.570,68685.0,573.0,0
4258,42.580,68735.0,546.0,0
4259,42.590,68850.0,512.0,1
4260,42.600,68665.0,473.0,0
4261,42.610,68795.0,431.0,0
4262,42.620,68756.0,386.0,0
4263,42.630,68440.0,222.0,0
4264,42.640,68840.0,179.0,0
4265,42.650,68812.0,139.0,0
4266,42.660,68959.0,106.0,0
4267,42.670,69037.0,81.0,0
4268,42.680,68784.0,64.0,0
4269,42.690,68917.0,49.0,0
4270,42.700,69460.0,20.0,0
4271,42.710,69475.0,19.0,0
4272,42.720,68823.0,29.0,0
4273,42.730,68836.0,37.0,0
4274,42.740,68807.0,36.0,0
4275,42.750,68757.0,29.0,0
4276,42.760,68876.0,17.0,0
4277,42.770,68837.0,2.0,0
4278,42.780,68822.0,-12.0,0
4279,42.790,68775.0,-29.0,0
4280,42.800,68881.0,-65.0,0
4281,42.810,68956.0,-81.0,0
4282,42.820,68949.0,-91.0,0
4283,42.830,68643.0,-100.0,0
4284,42.840,68960.0,-108.0,0
4285,42.850,68848.0,-115.0,0
4286,42.860,68926.0,-118.0,0
4287,42.870,68980.0,-119.0,0
4288,42.880,68875.0,-116.0,0
4289,42.890,68605.0,-115.0,0
4290,42.900,69873.0,-110.0,0
4291,42.910,69153.0,-91.0,0
4292,42.920,68636.0,-68.0,0
4293,42.930,68994.0,-54.0,0
4294,42.940,69054.0,-46.0,0
4295,42.950,68854.0,-39.0,0
4296,42.960,68993.0,-36.0,0
4297,42.970,68923.0,-35.0,0
4298,42.980,68904.0,-36.0,0
4299,42.990,69094.0,-39.0,0
4300,43.000,68953.0,-40.0,0
4301,43.010,68918.0,-42.0,0
4302,43.020,69106.0,-43.0,0
4303,43.030,69025.0,-44.0,0
4304,43.040,68972.0,-43.0,0
4305,43.050,69069.0,-42.0,0
4306,43.060,69009.0,-41.0,0
4307,43.070,68988.0,-40.0,0
4308,43.080,69047.0,-39.0,0
4309,43.090,68919.0,-39.0,0
4310,43.100,68778.0,-43.0,0
4311,43.110,69135.0,2.0,0
4312,43.120,69003.0,12.0,0
4313,43.130,69103.0,16.0,0
4314,43.140,69041.0,17.0,0
4315,43.150,69128.0,15.0,0
4316,43.160,69031.0,12.0,0
4317,43.170,69016.0,6.0,0
4318,43.180,69228.0,0.0,0
4319,43.190,69169.0,-41.0,0
4320,43.200,69054.0,-45.0,0
4321,43.210,69180.0,-46.0,0
4322,43.220,69155.0,-45.0,0
4323,43.230,68638.0,-46.0,0
4324,43.240,69983.0,-47.0,0
4325,43.250,69059.0,-37.0,0
4326,43.260,69089.0,-24.0,0
4327,43.270,69174.0,-16.0,0
4328,43.280,68950.0,-11.0,0
4329,43.290,69131.0,-11.0,0
4330,43.300,69068.0,-13.0,0
4331,43.310,69218.0,-15.0,0
4332,43.320,68791.0,-19.0,0
4333,43.330,69100.0,-27.0,0
4334,43.340,69230.0,-35.0,0
4335,43.350,69106.0,-39.0,0
4336,43.360,69195.0,-40.0,0
4337,43.370,69245.0,-39.0,0
4338,43.380,69094.0,-35.0,0
4339,43.390,69303.0,-30.0,0
4340,43.400,69324.0,-23.0,0
4341,43.410,68710.0,-16.0,0
4342,43.420,69223.0,-17.0,0
4343,43.430,69290.0,-18.0,0
4344,43.440,68922.0,-17.0,0
4345,43.450,70093.0,-12.0,0
4346,43.460,69324.0,4.0,0
4347,43.470,69285.0,26.0,0
4348,43.480,69266.0,43.0,0
4349,43.490,69193.0,55.0,0
4350,43.500,69295.0,61.0,0
4351,43.510,69291.0,64.0,0
4352,43.520,69389.0,66.0,0
4353,43.530,69368.0,68.0,0
4354,43.540,69214.0,68.0,0
4355,43.550,69345.0,66.0,0
4356,43.560,69378.0,62.0,0
4357,43.570,69092.0,57.0,0
4358,43.580,69183.0,48.0,0
4359,43.590,69268.0,35.0,0
4360,43.600,69124.0,21.0,0
4361,43.610,69338.0,-6.0,0
4362,43.620,69288.0,-16.0,0
4363,43.630,69210.0,-23.0,0
4364,43.640,68905.0,-33.0,0
4365,43.650,70163.0,-39.0,0
4366,43.660,69149.0,-33.0,0
4367,43.670,69214.0,-21.0,0
